,JST,Left Eye Euclidean Distance,Right Eye Euclidean Distance,Pupil Average Diameter,Channel 1 b/a ,Channel 2 b/a ,Channel 3 b/a ,Channel 4 b/a ,Channel 5 b/a,Channel 6 b/a,Channel 7 b/a,Channel 8 b/a,Channel 9 b/a,Channel 10 b/a ,Channel 11 b/a ,Channel 12 b/a,Channel 13 b/a ,Channel 14 b/a ,Channel 1 - Channel 14 b/a,Channel 2 - Channel 13 b/a,Channel 3 - Channel 12 b/a,Channel 4 - Channel 11 b/a ,Channel 5 - Channel 10 b/a ,Channel 6 - Channel 9 b/a ,Channel 7 - Channel 8 b/a ,Channel 1 - Channel 14 a Waves ,Channel 2 - Channel 13 a Waves ,Channel 3 - Channel 12 a Waves ,Channel 4 - Channel 11 a Waves ,Channel 5 - Channel 10 a Waves ,Channel 6 - Channel 9 a Waves ,Channel 7 - Channel 8 a Waves ,Channel 1 - Channel 14 b Waves,Channel 2 - Channel 13 b Waves,Channel 3 - Channel 12 b Waves,Channel 4 - Channel 11 b Waves,Channel 5 - Channel 10 b Waves,Channel 6 - Channel 9 b Waves,Channel 7 - Channel 8 b Waves,Change in R-R Interval 
0,50:09.6,0,0,3.396003723,-1,-1,-1,-1,-1,-1,-1,-1,-1,-1,-1,-1,-1,-1,-1,-1,-1,-1,-1,-1,-1,-1,-1,-1,-1,-1,-1,-1,-1,-1,-1,-1,-1,-1,-1,95.98613033
1,50:09.8,0.151528729,0.18912517,3.447540283,-1,-1,-1,-1,-1,-1,-1,-1,-1,-1,-1,-1,-1,-1,-1,-1,-1,-1,-1,-1,-1,-1,-1,-1,-1,-1,-1,-1,-1,-1,-1,-1,-1,-1,-1,98.03582297
2,50:10.1,0,0,3.306564331,-1,-1,-1,-1,-1,-1,-1,-1,-1,-1,-1,-1,-1,-1,-1,-1,-1,-1,-1,-1,-1,-1,-1,-1,-1,-1,-1,-1,-1,-1,-1,-1,-1,-1,-1,99.06916235
3,50:10.3,0,0,3.469612122,-1,-1,-1,-1,-1,-1,-1,-1,-1,-1,-1,-1,-1,-1,-1,-1,-1,-1,-1,-1,-1,-1,-1,-1,-1,-1,-1,-1,-1,-1,-1,-1,-1,-1,-1,99.8793998
4,50:10.6,0.011158069,0.009513381,3.509269714,0.898658092,0.996217279,1.435244286,1.200381502,1.978476565,2.299323198,2.484199305,2.983037546,1.471803576,1.800346798,1.808188704,1.178877609,1.302910755,0.930917405,1.195348002,0.770426585,0.591024459,0.460719882,0.280745575,0.295494992,0.134944393,0.709091403,0.846768153,0.359557935,1.616588415,0.641364074,1.401448419,1.192767709,0.684519082,0.647446544,0.437749829,1.073186015,0.704821867,2.189410947,0.993307214,100.6896372
5,50:10.8,0.236769357,0.228158304,3.369697571,1.358090121,1.917351585,1.431682726,1.636713546,1.574579116,1.942444911,2.02766713,2.062009482,1.26849001,1.675808979,1.408026991,1.264709177,1.214274422,0.946823314,0.777682751,0.429518027,0.552284106,0.43392667,0.378975382,0.405848774,0.239173292,0.555567427,0.517171294,0.353082585,1.144780005,0.51582685,1.422000561,1.156935176,0.796886414,0.816618701,0.399698402,1.330710954,0.484667522,2.177516364,1.137666654,96.57708399
6,50:11.1,0.032430043,0.017145837,3.297966003,2.481454759,1.085997689,1.824374741,1.36985351,2.195234714,2.391449266,2.052520137,2.389466036,2.535115496,1.484246816,1.123431075,1.774514154,1.134399468,1.577225032,0.255505338,0.811717829,0.308891873,0.649799601,0.306911324,0.16494573,0.203897411,0.487763783,0.557961796,0.369305078,0.921267409,0.461947559,1.64829287,1.203498456,0.767400806,0.534155065,0.379681872,1.123345636,0.683230921,1.55488331,1.033789466,91.98952462
7,50:11.3,0.337212592,0.35545899,3.417709351,2.087237579,1.484800403,1.535704057,2.043729611,3.033668225,1.843968292,1.825815267,1.740607278,1.676711872,1.712090547,1.361002106,1.488946099,1.146478377,1.61226329,0.297161231,0.587443435,0.437334252,0.359515621,0.192533004,0.323435817,0.314660603,0.53895072,0.444763826,0.380273401,0.625716098,0.343347167,1.106441092,0.970970898,0.697726111,0.576012179,0.392215276,0.93959775,0.60837985,1.216811502,1.018502859,89.59630543
8,50:11.6,0.157462332,0.167424993,3.459648132,1.546927244,1.338772459,1.590674937,1.356062642,1.908873841,2.17347539,1.97641782,1.766431825,1.977943872,1.188825388,0.929325694,1.102457681,1.086210559,1.290041489,0.501102343,0.687668625,0.57023863,0.793509816,0.440661088,0.232611568,0.286433862,0.801770857,0.586107883,0.454443471,0.906623126,0.47384101,1.309155483,1.032535393,0.961427359,0.722387649,0.655691236,1.322935285,0.760837308,1.43857329,1.155278863,91.38764193
9,50:11.8,0,0,-1,0.872899361,1.104301011,1.045451269,1.093423023,3.695363737,2.02733964,2.512230074,2.318027295,1.812994912,2.080254555,0.930494296,0.802403727,0.655848635,0.788487347,1.452917972,1.380730477,1.192074145,0.982874507,0.130084732,0.272067648,0.17172046,0.632965382,0.658596486,0.378621504,1.091042783,0.525760847,1.304620404,1.001870914,0.700727893,1.108927772,0.4933057,1.282083407,0.933961454,1.458861601,1.08580699,93.17897844
10,50:12.1,0,0,3.564399719,0.636073702,1.036151908,0.907092784,1.170260269,3.638661891,2.1680658,2.327756558,1.807874945,2.722725099,1.991635576,1.218400252,0.79548004,0.929190586,0.551406983,2.851151525,1.03865608,1.385858855,0.701338304,0.137990257,0.169404033,0.237626053,0.644891286,0.532373067,0.443537309,1.183332726,0.463154189,1.649195968,1.135739929,0.743912211,0.593655787,0.505769438,1.136578289,0.846169609,1.313230402,1.462339016,95.40294598
11,50:12.3,0,0,3.598640442,0.775431806,1.083641719,1.157456053,1.747322876,2.641060492,2.260893657,2.213218096,1.544274071,1.552648208,2.205377282,1.150895526,0.981366213,0.921853462,0.554503667,2.325690757,1.001042215,0.880368282,0.497268484,0.171687531,0.284870054,0.292584563,0.626455668,0.520242961,0.429667138,0.951584735,0.523415124,0.831083609,1.06617612,0.876051286,0.611547279,0.506763757,1.444723468,0.626818376,1.210185057,1.528019104,97.87451996
12,50:12.6,0,0,3.566490173,0.708543981,0.960813014,1.265214944,1.554418064,1.73666148,2.038905929,2.675384284,1.602206544,1.393195123,1.67590102,0.815418333,0.806273811,0.691932698,0.515828017,2.736076648,1.504171201,0.980286753,0.788954021,0.343586794,0.352039071,0.233289572,0.601124077,0.422960539,0.345699542,0.644637144,0.609621923,0.840783051,0.759119579,0.825707081,0.587320113,0.542476043,1.228860794,0.631724009,1.230464792,1.267587253,100.346094
13,50:12.8,0.226304667,0.251762002,3.539031982,1.683581894,1.689340262,1.478692785,1.82896041,2.863763738,1.376569037,3.289337279,1.400097074,1.329498818,2.000629193,1.780458044,1.674268017,1.648164653,1.526794701,0.389031806,0.359155293,0.403921588,0.307088782,0.174540499,0.546404224,0.217136806,0.601030008,0.477815319,0.426876333,0.825525314,0.315808397,1.028576336,0.595423915,0.662750034,0.489752437,0.377011892,0.84801387,0.452058102,1.06499255,1.398867349,100.6206001
14,50:13.1,0.007869967,0.011699867,3.450950623,1.455430048,1.628557328,1.593823847,2.131991912,2.12298769,1.488541479,3.085196506,1.785876356,1.039003202,1.996356577,1.257818569,1.222689724,1.299227053,1.349257858,0.509229679,0.47261978,0.513148918,0.372903488,0.235946972,0.64657986,0.181495467,0.999553538,0.601257895,0.420640339,0.78737632,0.465892375,1.248345371,0.755790759,1.078207731,0.753665766,0.548321123,1.33459625,0.495444445,1.788458266,1.305668784,100.0406911
15,50:13.3,0.042381494,0.052371211,3.485107422,1.28709392,1.409757465,1.076339034,1.620722225,1.94981172,1.49880548,2.056202973,1.599561335,0.96962389,2.006872678,1.244726543,1.027664151,1.371120816,1.15561042,0.672323532,0.517344543,0.904065096,0.495698337,0.255556836,0.688099782,0.304041677,0.830982112,0.606169124,0.460236425,0.847440612,0.557091514,1.284201984,0.824224677,0.925529924,0.623250291,0.482035332,1.10342777,0.541251857,1.985067603,1.059523755,99.46078204
16,50:13.5,0,0,-1,1.321752549,1.554411661,1.120840025,1.660982764,2.675514999,1.687304663,2.518580265,1.587051779,1.130556808,1.668656097,1.488537788,0.880721831,1.207794379,1.132384055,0.6681225,0.532648797,1.013019038,0.404459472,0.223988525,0.524220625,0.250180299,0.910351138,0.765678797,0.501677666,1.19600619,0.357441078,1.30727565,0.915226251,1.062589085,0.98541612,0.638454036,1.334561798,0.573119271,1.951049505,1.452423169,96.28180101
17,50:13.8,0,0,3.622184753,1.129217555,1.372961981,1.126545422,1.376458156,2.236940736,1.355602385,2.08592723,1.962358465,1.081663887,2.034592321,1.485190261,0.900368483,1.173572591,0.858114348,1.031994102,0.620628237,0.985895782,0.489164457,0.219719256,0.681985821,0.244299458,0.594309461,0.59809746,0.404410615,1.116757796,0.387764293,1.186320288,0.915251372,0.782069054,0.699713916,0.506000527,1.03499896,0.426329016,1.486763709,0.972884309,92.651338
18,50:14.1,0.008247509,0.042909288,3.836914063,0.709463174,1.223559564,1.133702351,1.776794828,2.731798607,1.460239875,2.33869202,2.481487646,1.497751461,2.026209077,1.685135691,1.015605414,1.089701038,0.578604095,2.436063694,0.750010804,0.868512245,0.333985676,0.180662104,0.457231397,0.172311732,0.639791302,0.621736886,0.425592674,1.047423477,0.32076782,1.299493923,0.806962357,0.784488688,0.698110846,0.47508157,1.104395703,0.432469232,1.266947749,0.760526223,90.63163284
19,50:14.3,0.006898015,0.005227264,4.02003479,0.786649418,1.407093113,1.427571941,2.235810437,2.425498629,1.292757771,2.359073784,3.483357554,1.750131606,1.675380364,1.659079893,1.254275901,1.353481031,0.706929878,1.798218398,0.525079411,0.558481663,0.26958624,0.246085228,0.441989686,0.121691549,0.634530152,0.619370531,0.424275242,0.794046352,0.310018964,1.862429036,1.188039559,0.706085271,0.643904117,0.482894896,1.070073316,0.448823794,1.375707747,0.804589519,93.29319268
20,50:14.6,0.005963847,0.010839624,4.070343018,0.929309197,1.55087739,1.306311818,2.209577686,2.139609287,1.328181979,3.231030286,3.553920943,2.150174976,1.885548794,1.606690806,1.166198678,1.226422644,0.602640696,1.785588207,0.525753745,0.656418178,0.281681559,0.247872159,0.350161677,0.087086575,0.598007298,0.573662517,0.428243189,0.898502196,0.406525353,2.141839752,0.982787686,0.922164211,0.725427104,0.47969454,1.23565181,0.461300935,1.323033238,0.89349674,95.95475252
21,50:14.8,0.146683859,0.12299309,3.756332397,0.968623477,1.316743562,0.94041045,1.533423906,3.724733527,1.445796044,3.16911936,3.438943322,1.814111197,1.7392344,1.214709341,1.104477669,1.047277295,1.045213697,0.987733803,0.725165457,0.962776795,0.53686538,0.154364232,0.381266866,0.091756404,0.6419456,0.592238113,0.389775901,1.158933479,0.23851485,1.293495691,1.081632559,0.594905694,0.744622008,0.331875728,1.463013614,0.510801912,1.030880001,0.996766263,98.06422812
22,50:15.1,0.005570939,0.015993436,3.269065857,0.719317187,0.998557226,1.168008185,1.194807127,1.958648748,2.308458411,2.728238324,2.981052176,1.839702737,2.008818001,1.426488747,1.098338122,1.352466728,0.801008332,1.735571576,0.740458037,0.779503476,0.586723989,0.254157453,0.23546713,0.122955544,0.715306599,0.660350455,0.436404698,1.372317628,0.585351103,1.610808616,1.428526624,0.642355779,0.487551897,0.464086832,1.149434152,0.570732244,2.021242141,1.307377681,99.48235497
23,50:15.3,0.007902286,0.007369687,3.145980835,0.639008569,0.962850286,0.932932497,1.226225827,1.317282245,1.133468487,2.014032371,2.749527335,1.833671553,1.569275911,0.967135334,0.861238297,0.885210173,0.499451923,3.133283042,1.173261555,1.244590395,0.843222702,0.483750975,0.481137273,0.180582438,0.683611602,0.627257215,0.503644974,1.247891633,0.95649805,1.901050469,1.196094728,0.874626068,0.682272761,0.545571144,1.582195267,0.802903995,1.17511819,0.876140953,100.9004818
24,50:15.5,0,0,-1,0.478896346,1.048226316,0.839162781,1.16527306,1.769078514,1.182010793,1.515474499,2.39601319,1.882286361,1.604075408,0.929674943,0.708699918,0.687885536,0.548184821,3.809179789,1.386847678,1.681478829,0.923083882,0.35239368,0.449461878,0.275398875,0.661312527,0.501736106,0.426651497,1.082971818,0.773254285,1.945677814,1.489472165,0.57772514,0.764564688,0.505192744,1.357418412,0.852795034,1.221818435,0.942088755,101.2470923
25,50:15.8,0,0,3.013282776,1.124871351,1.388613535,1.166910062,1.307442297,1.532985486,1.391882636,2.337362057,2.232213708,1.11087013,1.776219091,1.267634975,1.12813212,1.021621322,1.176308729,0.755745943,0.704901861,0.759630949,0.603369365,0.36725306,0.64674651,0.191662981,0.732243652,0.960280155,0.462308391,1.886756655,0.82140404,1.453756955,0.856183918,0.700224257,1.305237069,0.478199587,1.946006149,0.708921821,1.821508211,0.896514432,100.5724137
26,50:16.1,0.006596377,0.013832733,3.208175659,1.203419189,1.747214366,1.257754912,1.438705375,1.767429453,1.412359526,1.652951397,2.033990953,1.807038335,1.71551299,1.385557336,1.459539997,1.340693189,1.364334507,0.609062982,0.42689828,0.544738383,0.501653252,0.329810062,0.391820695,0.297434197,0.721809498,0.269622719,0.455967221,0.875265899,0.557494169,2.553880077,1.238017651,0.636676267,0.351376953,0.392928603,0.908839873,0.57436558,1.996082089,1.006092482,99.89773504
27,50:16.3,0.123581335,0.136771828,3.356201172,1.400587627,2.561102323,1.253723276,1.637284932,1.693379544,1.896975811,1.33418076,1.509986268,1.247198543,1.332550341,1.509488738,1.241022579,1.326638715,1.450982479,0.492070746,0.294320426,0.642715285,0.404618614,0.443161543,0.422671156,0.496377776,0.776875164,0.264051507,0.511616383,0.79369675,0.49280932,1.085450812,1.058116409,0.749893095,0.509756665,0.516852294,0.860892631,0.62625268,1.650959221,0.934921452,97.89844696
28,50:16.6,0.021045953,0.005008699,3.653533936,1.292250626,1.879569692,1.502108257,1.981615265,2.406035643,2.052930128,2.191439153,2.274094344,1.667443665,1.89164922,1.572882929,1.093627596,1.340993286,1.302179915,0.594267879,0.396748198,0.608736449,0.320836863,0.219713801,0.292128993,0.200660599,0.629997153,0.417625781,0.405349327,0.836734244,0.594099895,1.599353707,1.266264049,0.625193344,0.585354729,0.556751286,1.05416959,0.755650418,1.969098854,1.220239882,95.14104906
29,50:16.8,0,0,3.744186401,1.331487066,2.058496192,1.377345804,2.208318017,1.6704086,1.831263317,2.333008502,2.106688135,1.552924696,1.446049454,1.157163253,0.929630454,1.391542191,1.218479079,0.616374937,0.349102978,0.780992148,0.391330547,0.413994086,0.351640434,0.203462056,0.749045969,0.504276418,0.399768435,0.764414849,0.606033582,1.425475933,1.005087012,0.818516326,0.745971694,0.592299203,1.458801148,0.700061609,1.680971261,1.113062966,92.38365116
30,50:17.1,0,0,3.928199768,1.069978384,1.688305432,1.196935792,1.739745191,2.236558746,1.372580348,2.674304753,2.667253553,1.934118017,1.424645083,1.15159826,0.852814594,1.161089793,1.008566164,0.926660395,0.510132714,0.979658074,0.499129634,0.313843405,0.376685803,0.140192507,0.862453527,0.609631763,0.466620497,0.87499864,0.536715971,2.008169231,0.969039103,0.914968858,0.886447046,0.654907618,1.321879972,0.842593579,1.425132075,0.971600872,94.61454127
31,50:17.3,0.018427162,0.02635083,4.069007874,0.984868347,1.284819601,1.183640853,1.46078218,2.246365318,1.136784014,2.902829182,2.728477676,1.723662812,2.371997791,1.480322267,1.219703357,1.404771263,1.109356478,0.915273095,0.554054175,0.692669133,0.46244306,0.187674529,0.510351894,0.12625777,0.744332035,0.871823555,0.525635446,1.224320496,0.602743295,1.986105957,0.772476674,0.66080568,0.797379632,0.510094183,1.208159604,0.570819096,1.30986959,0.821838438,96.98912691
32,50:17.6,0.171676593,0.164157879,3.959884644,1.158462327,1.469268373,1.453693639,1.663900394,1.871976423,1.009785849,2.254007436,3.413699515,2.931325763,2.388278363,1.497260848,1.311602938,1.400611367,1.125928074,0.766668177,0.485938404,0.524474924,0.401398003,0.223673576,0.337836551,0.129962891,0.784984733,0.745151718,0.479016996,1.020974824,0.565498117,3.083795829,1.196225766,0.807667257,0.781678543,0.530910644,1.134605513,0.443247805,1.06230888,0.789847425,99.16181539
33,50:17.8,0.013728331,0.017885014,3.780960083,1.101990006,1.223588544,1.319648225,1.510578361,1.545389706,1.167035172,1.893186432,2.529432921,2.16515393,2.042773529,1.597084584,1.397257774,1.444868089,1.250285424,0.72579367,0.565635162,0.542332071,0.414504093,0.316768336,0.39575579,0.208825462,0.99045947,0.665488133,0.566462957,1.307603381,0.451243795,2.371539711,1.201952057,0.872981814,0.563569548,0.534999232,1.236776931,0.341372896,1.278278748,0.899616395,99.7337477
34,50:18.1,0.025832614,0.04495217,3.844932556,1.164860965,1.187599649,1.811057252,2.31305041,2.129954364,1.376579827,2.03408696,2.433598814,2.121766232,1.38509494,1.626983191,1.43416868,1.178453824,1.256591863,0.683174527,0.714524902,0.385006079,0.265724645,0.338961333,0.342374228,0.202014015,0.795927807,0.563305171,0.416602593,0.886989277,0.30364738,1.432796809,1.23170259,0.737825273,0.567676909,0.526082572,1.261015431,0.466939156,0.929583643,1.029500081,100.30568
35,50:18.3,0.014398213,0.004773988,3.942459106,1.512623889,1.150428515,1.479282031,1.464544736,2.819869156,1.459020332,1.705177697,2.385985545,1.769227876,1.365888793,1.575223062,1.089247794,1.099459566,1.224661822,0.539824841,0.79060781,0.620615087,0.433466258,0.259630495,0.387395777,0.24578906,0.787631935,0.84774683,0.46051265,1.446734456,0.290656557,1.253705327,1.438715398,0.972832549,0.887046834,0.625411492,1.345083997,0.600058704,1.033886922,1.028197935,100.456698
36,50:18.6,0.144482055,0.132410698,3.897979736,1.677784328,1.501295066,1.243090918,2.017491069,2.661762118,2.465342453,2.347932083,2.920204689,3.17401406,1.653318298,1.860136527,1.584435045,1.710145666,1.662458272,0.358519774,0.38949406,0.507718124,0.266467077,0.22723451,0.127795011,0.145848234,0.891030913,0.601466484,0.619065095,1.206371062,0.460710768,1.913439905,1.193319493,0.899245248,0.52801272,0.485696273,1.308421619,0.741721949,1.486220457,0.959464634,98.96532504
37,50:18.8,0.005737091,0.018840155,4.0209198,1.626947819,1.526238541,1.406848197,2.038205536,2.792827744,1.444068991,3.409814123,3.574127247,1.488430241,1.828627909,1.699769322,1.475621387,1.266377659,1.328985578,0.462494005,0.517385608,0.481701303,0.288643669,0.195808034,0.465246991,0.082053911,0.719750295,0.556857675,0.489714253,1.213161917,0.355189927,1.757717547,1.18105764,0.881120301,0.671124952,0.466890505,1.45471112,0.542474649,1.705330445,1.126760952,97.47395204
38,50:19.1,0,0,3.892280579,1.462089151,1.511073512,1.593982176,1.819902595,1.304136195,1.41346755,1.805751408,2.216048779,1.228741888,1.603123242,1.98590092,1.561573256,1.792340418,1.682133989,0.406598301,0.369227389,0.401748419,0.27669052,0.478310749,0.575775914,0.249897966,0.725399935,0.549555037,0.432228192,1.262314182,0.674333354,1.45025942,1.358924702,0.63050826,0.463314921,0.441198664,1.156799331,0.548568265,1.668287416,1.107322284,96.1552112
39,50:19.3,0,0,4.250717163,1.418159029,1.404910106,1.42742494,1.773093575,1.588585712,1.337140918,1.834248008,2.076371741,1.227814282,1.674140591,1.594163434,1.393822038,1.848721951,1.539237874,0.458109528,0.385016965,0.502619568,0.353781811,0.376008291,0.609102161,0.262565,0.820271268,0.757666446,0.47017196,1.061779412,0.531752512,2.020141144,1.257499724,0.755747455,0.575777902,0.481507082,1.180954357,0.504577959,2.200017888,1.110863878,95.07881936
40,50:19.5,0.190796723,0.222332111,3.834495544,0.928963523,1.341323263,1.475684748,2.036293301,1.762481275,1.45754713,1.807308799,3.07459607,1.520920479,1.941913059,1.26693807,1.443884194,1.655898507,0.946746764,1.137018444,0.45022834,0.469325389,0.387618308,0.292176785,0.451097983,0.179961485,0.707818732,0.669915048,0.474702612,0.370146921,0.640457115,2.233198625,1.792197552,0.694523401,0.542649585,0.485157609,0.59492071,0.581279201,2.140146241,1.053489412,94.00242751
41,50:19.8,0.131877296,0.14996653,3.571228027,1.025752186,1.112483231,1.233316354,1.761669955,1.87156514,1.722199966,1.721752828,2.326766589,1.854501435,1.846675062,1.58360444,1.448019552,2.240952659,1.043483839,0.934268747,0.401119564,0.559952365,0.35845013,0.289337396,0.313104457,0.249618274,0.689456776,1.13466184,0.549417797,0.177342193,0.541796346,2.026465264,1.467961185,0.677741014,0.563283773,0.467953594,0.197283112,0.54909885,1.881895772,1.086256926,94.26284264
42,50:20.0,0.003143417,0.005772538,3.432830811,1.106689753,1.712155651,1.978004237,2.775121784,2.713414236,1.366068098,3.349376125,2.382688113,2.256994946,1.666638199,1.435678483,1.533685836,1.458021713,0.960120329,0.941127462,0.400583231,0.329637321,0.25099251,0.221127405,0.324337425,0.125305139,0.670602444,0.417786523,0.407927034,0.0846989,0.486302222,2.611679681,0.811394128,0.772974836,0.490606931,0.526106054,0.163720336,0.791737147,1.580744477,1.140587434,95.06398867
43,50:20.3,0.006883271,0.01071868,3.410621643,0.99496502,1.105338995,1.388650758,1.542412799,1.768511455,1.055427662,2.445959509,2.237875457,1.922220634,0.911230576,1.497877501,1.438147318,1.231360234,1.157977562,0.867944676,0.734715808,0.500729973,0.432835708,0.62053151,0.492910753,0.18269002,0.81844778,0.672216224,0.436199195,0.184057205,0.389010044,2.810002286,0.871829124,0.70323203,0.603419523,0.421186574,0.189529644,0.754988624,1.542879153,0.952894286,95.86513471
44,50:20.5,0.00904603,0.024135567,3.425079346,1.054881724,1.042268293,1.001288725,1.018676697,1.489563748,0.799724009,3.060489798,2.532817416,1.465468162,1.254740854,1.467808779,1.070318156,1.002857179,1.218120265,0.778226587,0.956712363,0.933099124,0.668796741,0.535040759,0.853264108,0.129004595,0.743926689,0.894686085,0.476638983,0.38857026,0.604709716,2.611341201,0.743812161,0.644234146,0.929846201,0.44589848,0.269672368,0.717880245,1.425041026,0.89877364,96.87338318
45,50:20.8,0.124750103,0.137872336,3.57509613,1.083914527,0.95044526,1.634928466,1.159022363,1.401446288,0.838926495,2.429482564,2.377185988,1.198781404,1.260274174,1.276039276,1.171734613,1.136370087,0.947871509,0.973319655,0.925876578,0.522001782,0.676151697,0.566185191,0.994342706,0.173150222,0.803400513,0.711032029,0.317104427,0.267382471,0.649923263,1.646402575,0.849113932,0.918708367,0.594698004,0.442457745,0.242862637,0.722725708,1.152178985,0.867793897,97.89391738
46,50:21.1,0.138842905,0.14363382,3.687866211,0.985178384,0.857088573,1.668060038,1.125613014,1.895667264,1.343491619,1.742778397,2.44328231,0.998574962,1.108139948,1.284715779,0.954942173,0.7068909,0.779202205,1.302671624,1.650524228,0.627785454,0.691518553,0.476039816,0.74539138,0.234846548,0.828099125,0.754995679,0.359955396,0.239810379,0.478701017,1.355841265,1.278971184,1.047000832,0.915414485,0.628757666,0.210111596,0.818901845,1.824160875,0.912282359,98.66093969
47,50:21.3,0,0,-1,1.109782997,1.448731736,1.934269238,2.051308504,2.609898537,2.248336455,2.804929358,3.998343032,1.408782606,2.10758856,1.448829117,1.26876559,1.219554615,0.901259491,0.999797582,0.565992625,0.407475671,0.336474266,0.181798604,0.315714637,0.089165741,0.728466552,0.659045249,0.405321724,0.127070084,0.595278628,1.20944162,1.517504376,0.897011129,0.782892178,0.617924499,0.179910758,0.737153755,1.930199643,1.064564131,96.92590988
48,50:21.5,0,0,3.897827148,1.273262589,1.390579381,1.279265773,1.300460408,1.390505421,1.506136403,2.532465139,3.76556658,1.421021318,1.956523636,1.458129432,1.264487895,1.329655735,1.265227683,0.620745151,0.540835267,0.618193656,0.527359518,0.367571825,0.467234713,0.104863945,0.604693566,0.593277736,0.558652793,0.277875868,0.773231763,1.907124523,1.918196852,0.60853371,0.620461195,0.565181683,0.247828866,0.549537424,2.02135579,1.290049334,95.19088006
49,50:21.8,0.039423963,0.01777106,3.789573669,1.539416677,1.368085836,1.681484082,1.438110868,2.086932235,1.535903973,2.726102584,3.49863672,1.712980021,1.815814199,1.456026639,1.293671228,1.162926042,1.349120941,0.481496272,0.628542368,0.459709332,0.4775714,0.263888367,0.380087545,0.104847712,0.53849257,0.473198953,0.304201456,0.602477437,0.538542779,2.10516676,1.538723855,0.614447836,0.556679241,0.39539405,0.595064216,0.618952251,1.887549155,1.198958169,93.71282731
50,50:22.0,0.120719247,0.14424749,3.862045288,1.788787117,2.040045184,1.529781219,2.749517604,2.472111702,1.257507488,2.931229724,4.282232057,2.204073926,1.973983654,1.585311714,1.330982189,1.387321281,1.435538276,0.389427454,0.353332157,0.491132226,0.229418706,0.204921892,0.360797287,0.079667272,0.443574628,0.450013908,0.359898269,0.389277054,0.536467708,2.517595782,1.626057226,0.552726871,0.661741961,0.413653629,0.675150575,0.671843506,1.436383558,1.113052075,92.66124716
51,50:22.3,0,0,-1,1.535040477,2.463554896,1.255027851,2.07931598,3.346586861,1.729234703,2.220828509,2.685343342,1.567103953,1.932796476,1.176866621,1.317061373,1.351872338,1.509042371,0.431696705,0.300263176,0.604979451,0.408650715,0.154600813,0.369018595,0.167681502,0.597349389,0.273982524,0.420430392,0.272207934,0.363325304,1.492751725,1.301957286,0.607640653,0.499286042,0.400628143,0.480943462,0.629088321,1.64719008,1.076742707,91.60966701
52,50:22.5,0,0,4.160377502,0.619268167,1.245905412,0.926388745,1.944145277,1.980221405,1.601939581,2.46387341,2.578088628,1.72209533,2.210930702,1.340229274,0.858693552,0.814525244,0.632511869,2.553010284,0.985395056,1.257096243,0.383788702,0.228407899,0.362490541,0.157428648,0.660063531,0.424672575,0.412797102,0.491868975,0.506718659,1.402316832,1.020727604,0.646242945,0.649583133,0.445340003,0.713508324,0.45384287,1.304472987,0.975507038,93.3774834
53,50:22.8,0.007787417,0.011112595,4.333251953,0.591790016,0.978559086,0.945524143,1.787914432,2.428252422,2.053440971,2.449953355,3.498833198,1.400084513,3.994887838,1.41611266,0.906048254,0.680476306,0.541113032,3.122801451,1.501757945,1.167282701,0.394962137,0.103086449,0.347827188,0.116659187,0.689378044,0.610810647,0.437311763,0.406616657,0.77260019,1.17631439,1.61467182,0.753940526,0.878376371,0.456365131,0.51337426,0.46961726,1.725247398,1.130625674,96.13589857
54,50:23.0,0.13283766,0.133494819,4.267601013,0.549482613,0.868990199,1.007272609,1.822811153,1.742447908,2.557904159,2.80186582,3.344876089,1.55678777,2.702013132,2.362031849,0.862124168,0.766808432,0.568742307,3.199856553,1.500715065,1.151550945,0.232259012,0.212399134,0.251122902,0.106702018,0.679507016,0.594469306,0.406786857,0.753572483,0.721716108,0.872814278,1.241419205,0.656496424,0.673685863,0.475274066,0.581541831,0.465413253,1.434090961,1.039886066,98.89431375
55,50:23.3,0.01392639,0.021967593,4.233642578,0.64122215,1.007448849,1.394860216,2.250316343,1.440766867,5.449175065,3.210461769,2.826606262,1.655602303,2.84460453,1.766455051,1.058082394,0.872602182,0.672967772,2.317379799,1.137524346,0.677563221,0.251567095,0.243996946,0.110844262,0.110196343,0.654268152,0.516404752,0.390550221,0.247025936,0.82370866,0.442591869,1.059431911,0.623404639,0.596206821,0.514858738,0.31469043,0.417201102,1.456727001,1.203303656,99.6544429
56,50:23.5,0.034311426,0.031208343,4.301567078,1.870437874,2.711925193,2.706575633,2.857428381,2.143232679,1.831526188,1.686650556,2.353991269,1.777998751,1.558057983,1.216837125,1.593037197,1.412056497,1.578791122,0.338635151,0.261138089,0.231928391,0.287602194,0.299465683,0.307082746,0.251866286,0.560439527,0.1796976,0.312478153,0.143048671,0.364814876,1.475518001,1.286500391,0.663968338,0.345118237,0.530901447,0.335912938,0.501831879,1.519939122,0.921786171,100.1317097
57,50:23.8,0.085777027,0.098232407,4.385009766,1.320066504,0.947680045,1.719044164,1.480751561,2.606602844,1.68987328,1.548576289,3.192382298,2.281439632,1.264180935,1.445819044,1.274106401,1.127235836,1.141535423,0.663612864,0.936102656,0.456569891,0.467093539,0.303470094,0.259380235,0.202279793,0.807850273,0.707665048,0.433437506,0.374392261,0.249078293,2.604264679,1.829661198,0.934194476,0.594942091,0.584800621,0.383437974,0.513572203,1.928991341,0.887540929,100.6089764
58,50:24.0,0.030812149,0.007743241,4.40385437,1.177693171,1.060598139,1.355377116,1.382045294,2.295013383,1.915074242,1.411226474,3.008383406,1.943150158,2.258121322,1.543712725,1.3051303,1.268679244,1.285160565,0.66070935,0.743185631,0.565309103,0.468717576,0.192960096,0.26872497,0.235542945,0.9086001,0.724617222,0.56804532,0.491800119,0.425729334,2.337329164,1.754512915,0.832621356,0.605769883,0.58991476,0.440295677,0.432684688,2.303557889,0.823038403,98.60649388
59,50:24.3,0,0,-1,1.515851444,0.978689653,1.45634627,1.49157906,2.922992777,2.020347514,1.465347486,2.328761244,1.655569055,2.381690868,1.39742425,1.211495885,1.008819159,1.053996774,0.625898739,1.012841952,0.566778554,0.479761559,0.143643794,0.298969319,0.293045065,0.858523862,0.74933512,0.487131874,0.927619725,0.501879539,1.892687976,1.286704628,1.234723547,0.726955394,0.585584067,0.990120328,0.615944868,2.309711839,0.809644783,96.53257824
60,50:24.6,0,0,4.654846191,0.701059951,1.192156744,0.984389496,1.292691346,1.652838727,1.704085015,1.790066189,3.349797161,1.315132384,1.715151572,1.024050759,0.762165008,0.719150058,0.54462781,2.619057466,1.166398951,1.332858431,0.755411644,0.352749993,0.446209971,0.166767877,0.611579492,0.470485277,0.375234722,1.147446158,0.538875854,1.653858286,1.504016074,0.787242005,0.779937636,0.484641929,1.448457223,0.519298058,2.142989676,0.80371682,95.02112736
61,50:24.8,0,0,4.609382629,0.806577972,1.048349321,0.916867847,1.509931362,1.990880317,2.217105059,2.401768469,2.973402178,1.362033736,1.616708935,1.016977432,0.889234078,0.893136999,0.632507009,1.960145459,1.068011431,1.226527131,0.651225621,0.310686948,0.331150841,0.140028103,0.497940672,0.308389234,0.379215047,0.790138693,0.43314677,1.40932775,1.006314854,0.634977908,0.361982142,0.390999504,1.173138317,0.53339433,2.294089788,0.812851791,95.37162875
62,50:25.0,0.006709599,0.007128115,4.618011475,0.828907372,1.286665975,1.051800477,1.475477358,1.490229204,2.043773998,2.093024719,3.615381668,1.347050138,1.238455788,0.923924275,0.85124604,0.791054915,0.647222413,1.863976572,0.982488669,1.116892904,0.733552282,0.541834211,0.363231388,0.132151316,0.529313311,0.370710445,0.360312333,0.842235715,0.651209081,1.713474321,1.247299964,0.67789943,0.602967642,0.445202287,1.345023354,0.783597445,2.5997208,0.722089643,95.72213014
63,50:25.3,0.170131623,0.17591257,4.696487427,0.839721573,1.01400781,1.121422818,1.391574712,1.5807311,1.767823507,2.414421975,2.338859168,1.430005492,1.083840692,1.065708954,0.804132812,0.769521623,0.621096429,1.917368805,1.281556838,1.108926667,0.674302636,0.583682336,0.395570039,0.177085398,0.500114535,0.379195843,0.369595218,0.583928491,0.542284326,1.114817304,0.82836916,0.676154207,0.499670879,0.51542793,0.762478459,0.790896398,1.37817669,0.855131737,96.29549364
64,50:25.5,0.17313319,0.212282209,4.330558777,1.220327783,1.28370978,1.231214146,1.466437023,1.780459754,1.434159806,2.04935358,2.195371093,1.991452841,1.379537244,1.407646077,1.361548178,1.775035337,1.57989478,0.518675025,0.438860149,0.596531511,0.484443473,0.407131222,0.350132502,0.22226709,0.773707327,0.597537897,0.504200256,1.014763742,0.692709116,1.236207798,0.82576478,0.597619891,0.432140829,0.455935749,1.057145787,0.89402494,0.890264384,0.770841893,97.12630129
65,50:25.8,0.018554669,0.014640639,3.646080017,1.384023066,1.412175532,1.483692611,1.873973005,1.922426965,1.024085074,1.93348793,2.480952523,1.223030601,1.734576023,1.774142349,1.356487045,1.595521805,1.571985745,0.459629684,0.443821742,0.4968673,0.300779482,0.299886428,0.798411236,0.208468327,0.883568516,0.801456031,0.5155928,0.55658354,0.531802816,1.760506807,1.159290469,0.777920035,0.709358276,0.563942893,0.587902391,0.589395945,1.474132161,0.903473205,97.95710894
66,50:26.0,0.005528658,0.016805275,3.525550842,1.52179416,1.198601655,1.692517071,1.281667133,2.054372699,1.293324641,1.712306433,2.067422182,0.934169955,1.680127789,1.860396331,1.697282897,1.636721884,1.487811247,0.44166832,0.509741788,0.348106961,0.419391166,0.289719982,0.827687798,0.282481064,0.608866038,0.931826668,0.47164204,0.916518376,0.413994192,1.564152546,1.044033223,0.622773072,0.682393873,0.470317709,0.631409264,0.506210522,2.165512836,0.864702342,97.23763514
67,50:26.3,0,0,3.955474854,0.818655159,0.804267133,1.018832973,1.32616286,2.114397409,1.225640785,2.324488583,1.997911834,1.415732232,1.990185282,1.126724932,1.009024075,1.242054865,0.763727269,1.599413286,1.001057211,0.972737099,0.669245153,0.23764018,0.576309364,0.215325896,0.6885914,0.754150342,0.437963587,1.149830651,0.421787347,2.20909783,0.894119592,0.738115457,0.488334574,0.442221108,1.353358448,0.448112083,1.912480578,1.040271521,95.59984177
68,50:26.5,0,0,3.915557861,0.582564688,0.836410585,0.95802936,1.466923157,1.967395187,1.707543009,2.006448696,2.781707445,1.394422907,1.932386184,1.310142986,0.846087003,1.07745928,0.601766487,2.852514404,1.109633638,1.23369032,0.520324097,0.263035564,0.419985059,0.179168017,0.670775481,0.667755956,0.439387007,1.105348839,0.415672662,1.860693356,1.510288918,0.64937167,0.518365901,0.497520529,1.23762202,0.423203395,2.278515303,1.089373088,93.96204839
69,50:26.8,0.021988664,0.016727091,3.686027527,0.655903008,0.850301376,1.016789062,1.67217352,2.710786056,2.096073065,2.417439964,2.975412413,3.031234174,2.175713461,1.400419025,0.977580211,1.098898714,0.679492244,2.243757272,1.070211105,1.006043438,0.427032232,0.169552055,0.157388898,0.139026354,0.679858056,0.646130432,0.470205747,1.026612165,0.37651518,1.611814177,1.104401199,0.656256122,0.499960176,0.48906479,1.22582859,0.469111451,1.114556015,0.897295307,93.15789308
70,50:27.0,0.005614614,0.012610502,3.51902771,1.44245208,1.096365563,1.627075459,1.62971985,1.268712082,1.368559239,1.705247515,3.24932126,2.174830549,1.705349037,1.872010726,1.630611125,1.61022507,1.509415263,0.459293045,0.566445369,0.376913684,0.327777178,0.462193298,0.335978103,0.180476194,0.644274683,0.667266429,0.465264757,1.350951056,0.823363884,2.046963482,1.616206286,0.6156923,0.454326509,0.46425592,1.176099966,0.612550091,1.288096117,0.848186908,92.42622804
71,50:27.3,0.012902411,0.021139993,3.509895325,1.669599057,1.125523753,1.78870477,1.400045803,1.417462875,2.262669823,1.990130905,2.619623472,1.748003938,1.496175545,1.460320543,1.639489491,1.198998869,1.719306787,0.348364933,0.741014253,0.34099868,0.4891134,0.47152612,0.252834543,0.191813638,0.829119424,1.065560369,0.427986797,1.111915661,0.893035334,0.806654278,1.01745718,0.805148341,1.000262416,0.466939269,1.066021335,0.846053416,1.044157998,0.772963367,92.48086641
72,50:27.5,0.013771115,0.008179023,3.614433289,0.985826226,0.989109161,1.4453828,1.195989857,1.248951653,1.926652596,1.726341386,2.285070565,2.119282302,1.659288576,1.333548384,1.170369518,0.978314095,0.991706519,1.022860633,1.033421434,0.591145129,0.626994493,0.482539033,0.24491071,0.253497512,0.630522045,0.724553372,0.401395557,1.064719329,0.802863671,0.919627683,0.994583705,0.626783384,0.732548352,0.495715434,0.954891125,0.604317973,0.836039192,0.751395181,94.68316934
73,50:27.8,0,0,3.818977356,0.725618178,0.996791929,1.12659944,1.157576558,0.952885062,2.203489984,1.631142021,1.742228722,2.443884534,1.823596303,1.626429086,1.223218229,1.742856649,1.095543001,1.257947214,0.575617275,0.725648872,0.531147503,0.57548072,0.185698432,0.351886864,0.56590758,0.728000611,0.471983784,1.252452685,0.876325596,1.311990794,1.052338166,0.374821277,0.416365359,0.434703027,0.891406752,0.457907032,1.182935827,0.985239757,96.88547226
74,50:28.0,0,0,-1,0.886359945,1.637939918,1.217550065,1.810387776,1.766245843,1.802207783,1.489527053,1.826211147,2.553156368,1.878023256,1.041595684,1.238180474,1.533081846,1.182468696,0.954113907,0.398232493,0.663329361,0.530309271,0.301472624,0.217329022,0.367621257,0.599272634,0.466638388,0.421655523,0.508982009,0.359841483,2.09017936,1.015510122,0.449205345,0.498555015,0.414629952,0.884656899,0.338424203,1.475404154,0.828288559,98.99256454
75,50:28.3,0,0,3.760185242,0.806722142,1.043530054,1.085603443,1.715725786,2.242972932,2.57616068,1.580497963,1.6695046,1.388072366,1.508256255,1.730589755,1.177947059,1.356870579,1.262718709,0.98167879,0.706246995,0.781993271,0.336789073,0.295597551,0.279650078,0.378981875,0.749256215,0.62295893,0.482954547,1.50378782,0.351355818,0.762170609,1.000879628,0.478682682,0.479099758,0.445093958,1.490871845,0.522511732,1.414532846,0.947519529,100.9764944
76,50:28.5,0.002764081,0.01171785,3.589401245,1.36419498,1.42195892,1.433899729,1.883198363,1.990343564,2.925358,1.940512753,1.578121752,1.459394374,1.961586403,1.634080985,1.584044933,1.445598346,1.916037195,0.38257767,0.486480355,0.440264553,0.324960336,0.256132394,0.234233124,0.326544966,0.841255863,0.710508479,0.539483482,1.340675085,0.753739612,0.630511214,1.048546955,0.598963856,0.698889752,0.488348027,1.545062422,0.764789551,1.263860583,1.289329379,102.9604243
77,50:28.8,0.236675578,0.202255206,3.579086304,0.764447521,1.000450236,0.949971417,1.442907177,1.910798137,2.325365265,2.039272871,1.527435209,1.66340268,1.548622081,1.104783958,1.192204395,1.046318732,1.728823414,0.756661588,0.955301608,0.882955352,0.627312941,0.337940112,0.258530283,0.321042006,1.489848532,0.845881869,0.641112451,1.685579427,0.682310784,1.127379682,0.937659099,0.658778107,0.808800119,0.510850745,2.201457248,0.841882723,1.576028214,1.251865055,103.4210995
78,50:29.0,0.095027854,0.100450852,3.630638123,0.694338157,1.212615997,0.776277741,1.389547177,2.937028801,1.644845967,1.623587288,1.529595588,1.231249099,1.10982972,1.206931106,0.891479018,1.135814451,0.785191266,1.834228795,0.726054659,1.445012955,0.596271736,0.306785934,0.493774707,0.402668573,0.665890808,0.518798741,0.461249265,0.984476391,0.244765877,1.806694845,1.051881817,0.588841746,0.553878895,0.40164438,1.133433701,0.647742997,2.413593424,1.116518615,101.878977
79,50:29.3,0.034586089,0.614186167,1.205993652,0.601171964,0.657164519,0.907338975,1.095184731,3.23481362,2.109253381,1.838496042,3.16095208,1.18754629,1.838232686,1.371118839,0.988381709,1.21373625,0.799154549,2.081471674,1.253722932,1.115079249,0.665943711,0.168170669,0.39922773,0.172075638,0.718562517,0.593963431,0.486037083,1.145835498,0.319222611,1.378268905,1.698621799,0.540545806,0.321595151,0.446184287,0.915239078,0.561749151,2.448004236,0.987964821,100.3368544
80,50:29.5,0.042641792,0.66696084,3.345252991,0.618579109,0.737371328,0.795669318,0.966049004,3.038064518,2.058582857,1.989450779,3.110432878,1.319320508,1.574403244,1.132711835,0.792900075,0.910302614,0.727680685,2.22158996,1.489799978,1.585071764,0.913863654,0.209067743,0.368197923,0.161601716,0.729444606,0.675756945,0.535490604,1.474941033,0.264982106,1.171246465,1.467529296,0.620078565,0.547382582,0.537360831,1.257923923,0.511325632,1.827537644,0.938640188,98.33536554
81,50:29.8,0.397388501,0.429052471,3.457092285,0.744313463,0.86187013,1.150728961,1.056182457,2.932566864,1.72410649,1.974344405,2.841914394,1.174743083,1.724649951,1.101954201,0.840583684,0.931009977,0.705285064,1.904931829,1.246246167,1.03382255,0.859206404,0.197720234,0.493733979,0.178223962,0.632696321,0.573874445,0.399659211,1.285282369,0.333461251,0.853051885,1.152017001,0.667707873,0.531256651,0.547119148,1.231895744,0.567012115,1.251977827,0.800333158,95.96704453
82,50:30.0,0.067827648,0.043752976,3.619674683,0.900920474,1.207534557,1.581142845,1.336606249,2.493652486,2.105698168,3.880916741,2.81901667,2.030985901,1.967087081,1.766270373,1.438814201,1.412641954,0.785878537,1.412401322,0.586230394,0.439566085,0.423583787,0.203863973,0.233828246,0.091404595,0.68770256,1.010095028,0.552918792,1.537189939,0.487792846,1.204556359,0.604013573,0.788372869,0.863435104,0.607613958,1.163252076,0.618369087,1.248867418,0.831540448,93.59872352
83,50:30.3,0.021276656,0.025898728,3.339363098,0.882543862,0.93157951,1.548505625,1.217164124,2.499217762,2.658361585,2.551713669,2.012305928,1.771990808,1.255964083,0.875041991,0.666059708,0.538689484,0.505004061,2.243720888,1.992698411,0.969558571,0.938905672,0.318580127,0.212287529,0.19474847,0.518554394,0.56197673,0.298038834,1.218204873,0.281506563,0.880044897,0.728324406,0.906224391,0.971851173,0.692903062,1.694496129,0.560164269,1.320253772,0.92355507,95.11378375
84,50:30.5,0.032585805,0.036755497,3.220527649,0.861767556,0.645944889,1.394130474,1.144025228,2.12911377,1.690303846,3.173187444,1.930005086,1.30688943,1.937953002,0.963093221,0.969121737,0.943558271,0.682428864,1.70040539,1.640725048,0.740147446,0.907603313,0.242358296,0.452685282,0.163284823,0.580289936,0.664219576,0.332354985,1.119752303,0.417451749,0.836516446,0.637281647,0.732787059,0.45471409,0.478109401,1.330115149,0.458629424,1.081933126,1.047776576,97.24011696
85,50:30.8,0,0,-1,0.862680022,0.733453976,1.462835803,1.063419219,2.456873899,2.160015045,3.651469744,1.708657496,1.321889351,1.740980057,0.96986637,0.884646906,0.771919736,0.57145418,2.028471199,1.766261439,0.772741891,0.969579879,0.233788604,0.350225787,0.160279241,0.564522446,0.56581641,0.311915547,1.175349847,0.339396625,0.885850568,0.500215278,0.852215722,0.537621045,0.515777795,1.288723535,0.478957071,1.447511892,1.068980154,99.36645016
86,50:31.0,0,0,3.072288513,1.458838901,0.795287187,1.295056345,1.229222082,2.297811553,1.387943286,2.405360545,1.290869286,1.384811035,1.735022311,1.09020956,1.409447136,0.954970831,1.351483295,0.507203197,1.316697187,0.547851109,0.746207587,0.250830606,0.520280758,0.322060564,0.874882893,0.701891763,0.541228552,1.031698574,0.31044678,1.513391921,0.572094649,0.944379559,0.584526258,0.497302419,1.163250365,0.411146412,1.516815004,1.0660211,99.42302091
87,50:31.3,0.127637556,0.101140596,2.85597229,1.72356681,1.023917729,1.481555514,1.437783034,1.901039059,1.727379046,3.237514315,1.889582173,1.562347704,2.710204335,2.602623083,2.781608417,2.054848866,2.212765281,0.262202319,0.475286033,0.242653231,0.26723625,0.194091682,0.370539626,0.16346415,0.853480577,0.849456546,0.805193318,1.921292604,0.566940631,1.559924843,0.519764735,0.664792967,0.423278633,0.428866476,1.061391458,0.397673441,1.724700257,0.89053855,99.47127936
88,50:31.5,0.119219204,0.129416882,2.637611389,1.218339444,1.216919326,1.128491613,1.834175826,1.960380905,1.4950913,2.761189799,1.576838178,1.552886878,2.310142598,1.227678364,1.247227059,1.322478462,1.283355204,0.639565192,0.621369031,0.710487006,0.444093516,0.220811022,0.430717448,0.229676527,0.609367045,0.469962222,0.459146806,0.845825773,0.534498533,3.045770328,0.63088001,0.578496043,0.432450226,0.41543624,1.263680481,0.453574043,2.932412388,1.10472937,99.3713659
89,50:31.8,0,0,-1,0.834113547,0.962262574,1.042387532,1.544228455,1.592703394,1.273644248,2.734647008,1.845330348,1.52375727,2.117582551,1.521077234,0.996415848,1.281405871,0.688029446,1.742479991,0.810997836,0.962786885,0.42573287,0.296500032,0.515271439,0.198163927,0.740773349,0.891261082,0.558349012,1.626719957,0.544809751,2.409903303,0.802243036,0.898056166,0.669286135,0.584109586,1.65147909,0.40976931,2.014336233,1.188866546,98.22468961
90,50:32.0,0,0,2.704925537,0.875082636,0.867489456,1.154111796,1.544882974,1.695196028,1.332172818,2.13438481,1.606184344,2.013353325,1.674268214,1.679718014,0.865789485,1.246766645,0.657018542,1.739295234,0.924593041,1.000782755,0.385361242,0.352334395,0.37283737,0.291696951,0.736261357,0.873409739,0.477176517,1.537762923,0.551459069,2.711860613,0.846001843,0.980626097,0.607710947,0.63608424,1.414322963,0.558352131,1.794353207,1.1242131,97.07801333
91,50:32.3,0.307847938,0.333762143,2.733314514,0.885927427,0.934647395,1.009462527,1.227609627,1.916289581,1.652649759,2.630077324,1.90838593,2.437474674,1.70710168,1.497951615,1.198739489,1.301532359,0.947823366,1.19089766,0.8220481,0.826389873,0.543803413,0.305688761,0.248244173,0.199234836,0.772292449,0.804947066,0.522731866,1.379396052,0.549624803,2.710371862,0.899731219,0.721859248,0.578043008,0.44019425,1.130450313,0.616975717,1.837678747,1.2399812,95.6171678
92,50:32.5,0.01508241,0.010467582,2.862632751,1.272861795,1.099580491,1.007169413,0.951929165,1.76734484,1.279067439,2.165034045,2.177534549,2.83025071,1.531256636,1.284456109,1.138384089,1.422494128,1.267135678,0.620005625,0.639326184,0.872185083,0.817854596,0.369513849,0.276236873,0.212114431,0.820689532,1.819198848,0.517585434,3.732342398,0.611903113,4.190758266,1.152658921,0.824398183,1.406231157,0.457926479,2.766093413,0.706245958,1.893917886,1.146041888,93.55720884
93,50:32.8,0.0066161,0.015371166,3.012443542,1.061628104,1.433870744,0.819831654,1.246018088,1.690401444,1.804935629,2.19327675,2.446638294,1.697648366,1.680569939,1.42052409,1.160467871,1.326815304,1.358755619,0.693244192,0.525629249,1.051095549,0.564972163,0.352008827,0.326355204,0.186353175,0.849788926,0.559664457,0.538133591,1.506604414,0.631345076,1.401465003,1.070024622,0.663960314,0.604821552,0.380173345,1.321523771,0.63503851,1.490034195,0.959218259,91.49724988
94,50:33.0,0.00806477,0.014421642,3.184265137,1.502733625,1.187494473,1.372243576,0.968882294,1.851709913,2.273016028,3.793852808,3.481126032,2.037639794,2.339996328,2.27840048,1.847549727,2.014345933,1.845429027,0.360595787,0.41805589,0.394432468,0.453000746,0.230787282,0.215908673,0.075718112,0.851114885,0.714043426,0.558297182,2.947854755,0.554528714,1.711422745,0.950870998,0.693063205,0.420941909,0.414667985,1.253565517,0.438815354,1.909116293,1.036292445,92.62144007
95,50:33.3,0.00244248,0.012600735,3.204452515,1.233978552,1.307746305,1.817072393,1.445461563,2.111549828,1.753361417,2.315715186,3.237796678,3.492151521,1.980846401,2.124985647,1.655334308,1.680562531,1.200116876,0.675256613,0.455010922,0.332462031,0.325564806,0.239082542,0.163318535,0.13337219,0.611744378,0.554783119,0.34780015,2.622259428,0.346657118,3.768265258,1.284101412,0.629004938,0.431709955,0.381782729,1.78371803,0.369530811,1.89199434,0.918406384,94.98391049
96,50:33.6,0,0,-1,0.955609251,1.025284457,1.343438123,1.550311159,2.410081525,1.858731256,3.233699445,3.665283452,1.984190711,1.462601613,0.920485359,1.045557511,0.996936201,0.775259846,1.349809139,0.978336508,0.711925265,0.700751832,0.283688819,0.271143992,0.084370919,0.61433311,0.428539375,0.382411283,1.387409419,0.260915292,2.704464894,0.949351272,0.757245981,0.440725053,0.491360724,2.336719735,0.429937393,2.533462837,0.837565968,97.3463809
97,50:33.8,0,0,3.277664185,1.041046521,1.031112806,1.482526,2.204355717,2.638990812,2.29965259,3.605784199,2.735637819,1.213965601,1.548415492,1.089015576,0.984259348,0.918960115,0.82192701,1.168682687,1.055351561,0.685311679,0.416566394,0.244722902,0.358204789,0.101377522,0.626144306,0.374588777,0.434316887,0.884554086,0.234625533,1.07964894,0.692968364,0.793069631,0.420304732,0.654183349,1.790490328,0.39987628,2.045212385,0.913386399,98.43846004
98,50:34.0,0.009973614,0.022435609,3.203598022,1.111778181,0.720256767,1.202657954,1.80516636,2.915552352,2.003038132,3.694732086,2.925978043,1.416759544,1.070812777,1.064272732,0.953096952,1.063335566,0.992833966,0.905952081,1.305696717,0.872410314,0.520510906,0.320306396,0.352382746,0.092500906,0.728467548,0.671689445,0.488468778,1.089849017,0.228112794,1.014459985,0.805919822,0.815739946,0.454972902,0.616370517,1.848547581,0.621093443,1.434260345,1.017662396,99.39563037
99,50:34.3,0.202412201,0.226456289,3.213882446,1.317594491,1.305919843,1.382558284,2.026009083,2.727647492,1.727507414,3.379448538,2.897043691,1.993258403,1.222591603,0.975937855,0.983279801,1.030145374,1.032057074,0.735384572,0.743335652,0.735596127,0.505750648,0.299868155,0.290413283,0.102140768,0.668465824,0.456638932,0.398458601,0.878232443,0.299594295,1.406193605,0.860312787,0.853409089,0.578883193,0.560259897,1.823176442,0.668406053,1.218712975,1.003568844,100.3302143
100,50:34.5,0.01000577,0.001840573,3.275062561,1.728538324,1.191104975,1.298178978,1.53207561,2.503046199,1.380273872,2.561860109,2.003292836,1.916232928,1.678617184,1.115616052,1.198131895,1.226066998,1.150313154,0.502926941,0.684755862,0.642925717,0.585066251,0.238001377,0.378082377,0.194849884,0.667385926,0.79122149,0.509140325,1.406350763,0.426229743,1.914020919,0.947714753,1.002859218,0.768659343,0.551654846,1.931341611,0.635566435,1.378680549,1.211960916,98.46408044
101,50:34.8,0,0,3.159477234,1.644504107,1.04600429,1.277010532,1.345651047,1.996411957,1.613600127,2.200853638,2.057590242,2.175600253,1.512949045,1.19379263,1.061696064,1.44066232,1.110575858,0.547541207,0.663596882,0.737573515,0.622498992,0.331074351,0.284855743,0.220825868,0.766646976,0.926864429,0.518260716,1.443781731,0.417453296,2.176378236,1.253781519,1.135225561,0.672957261,0.623365212,1.627440436,0.550850509,1.614177142,1.341078296,96.5979466
102,50:35.1,0,0,-1,1.296269437,0.874590101,1.31686269,0.92918405,1.447955225,1.208800195,1.561747025,1.516417263,2.136541342,1.362123686,1.335549028,1.129195479,1.430329853,1.362627391,0.566144906,0.799390972,0.672497039,0.805820698,0.507023773,0.387198956,0.422250909,0.783092991,0.904384588,0.5209061,1.388782544,0.43802576,2.558121694,1.158140292,0.744957512,0.552995385,0.607478352,0.966220305,0.46562709,1.447319526,1.192760198,95.11086457
103,50:35.3,0,0,3.478851318,1.26747907,1.117547857,1.501956198,1.115965005,1.290294605,1.411819755,1.620138539,1.340015663,1.759047181,0.909464236,0.971601578,1.130911316,1.310135919,1.289244418,0.611961279,0.682994987,0.588727311,0.922276648,0.852168533,0.402664421,0.46061489,0.730635473,0.678147709,0.389433019,1.245504284,0.302120877,2.325953644,1.007967883,0.718300702,0.578460988,0.51720354,1.430564983,0.42863141,1.866821618,1.218678004,94.70262226
104,50:35.5,0.140788981,0.149555446,3.810295105,1.390097184,1.141059333,1.767359152,1.487612642,2.158172601,1.567509049,1.60565959,1.599142644,1.610302585,0.926442886,1.099560687,1.285820399,1.07871863,1.34900966,0.533260944,0.812425588,0.440042756,0.611351435,0.500144129,0.396170792,0.389456824,0.576464963,0.487795419,0.401037971,0.865481241,0.258804156,2.239314233,1.287111758,0.594022671,0.515985819,0.551226384,1.170922943,0.602890958,2.179804812,1.292357093,94.29437995
105,50:35.8,0.582723648,0.599642482,4.022872925,0.784128049,0.988930707,1.166247527,1.345451032,1.955414627,2.247236602,2.718471073,2.413565047,1.536902875,1.20820485,0.991050787,0.846986095,0.695728642,0.582906811,2.187831551,1.45343045,1.012355353,0.749956706,0.423273,0.289537471,0.152410987,0.581833343,0.431317518,0.398176237,0.859865044,0.353290362,1.557521459,1.029136861,0.782684016,0.613088368,0.54826408,1.167353203,0.571781467,2.277384789,1.159147871,95.89262791
106,50:36.0,0.061510494,0.075654421,4.103942871,0.911343587,1.127917932,1.391062623,1.694155692,2.161273755,2.187253914,2.457010469,2.472367887,1.686704763,0.896407501,1.029345316,0.871583162,0.727226889,0.77577648,1.414429318,1.219137164,0.824792089,0.573436837,0.516160467,0.271057686,0.164618977,0.583982532,0.42826189,0.33246929,0.819177303,0.347493275,1.274520841,1.339196655,0.686033606,0.664227729,0.53062705,1.348249095,0.83781996,1.652749645,1.33087807,99.17278683
107,50:36.3,0.336756587,0.365327836,3.744697571,0.779033912,1.305165566,1.157304003,2.117927867,2.284484593,2.388973114,2.215979476,1.646958192,2.210526626,1.050756299,1.021503194,0.84760007,0.80846832,0.708380723,1.812078059,0.947701103,1.019439744,0.462220397,0.416590886,0.189362068,0.274000712,0.577785901,0.304965944,0.320739187,0.614886929,0.355379545,1.437212236,1.060554548,0.635413692,0.492327329,0.437933831,1.274872334,0.772642615,1.553232316,1.42697436,102.4529457
108,50:36.5,0.063915638,0.062106951,3.725204468,0.76612934,1.217810515,0.999919434,2.528559528,1.783994325,1.44506418,2.140887665,1.904259983,2.651120558,1.182424131,0.976706003,0.820629509,0.837298992,0.636163341,2.05177279,0.980707986,1.218674885,0.404914157,0.474059929,0.261025771,0.24529002,0.584069626,0.30234785,0.364968902,0.514966876,0.46563016,1.779635474,0.963382228,0.703393056,0.43975019,0.444706769,1.333179479,0.702524197,0.970037922,1.083094298,104.6036954
109,50:36.8,0.092795585,0.099136442,3.921684265,1.248958675,1.529577495,1.536556928,2.10834984,2.584070235,2.304846715,2.457387628,2.75864826,2.980366339,2.226742125,1.759708658,2.026231498,1.918373645,1.521415034,0.526264685,0.340796649,0.321190198,0.26953586,0.173790391,0.145575504,0.147512901,0.824446796,0.677516058,0.596589187,1.293457598,0.573849174,1.954817943,1.404719049,0.67680413,0.540204103,0.452412891,1.549723078,0.665935472,1.511745605,1.251315458,105.8077344
110,50:37.0,0.094768976,0.06415507,3.893592834,1.855164184,2.176391795,1.883319054,2.570913268,3.166143791,2.289392923,2.8929166,3.860790276,2.56123915,2.305978803,2.184964963,1.951076381,1.801254239,2.126176005,0.253523625,0.255086752,0.27214592,0.178019713,0.136966404,0.170541286,0.089533977,0.712576185,0.479671638,0.500119747,0.955449848,0.449491369,1.902983481,1.429696322,0.621748065,0.579570276,0.4827515,1.124218801,0.617158452,1.701003561,1.071281247,107.0117734
111,50:37.3,0.417279772,0.466433956,3.690322876,1.729831932,2.048884422,1.578860466,2.697875706,2.905228683,2.324907461,3.048430503,5.760383455,2.811430142,1.96066234,1.138370495,1.551585411,1.299846412,1.3536272,0.427067987,0.375483191,0.408207107,0.325607524,0.175556482,0.152991405,0.056947191,0.645282696,0.391080901,0.475697995,0.668125161,0.36030299,2.151770303,1.866817031,0.824621884,0.616441726,0.484060208,1.583420027,0.533882128,1.779402859,0.987931103,105.4593579
112,50:37.6,0,0,-1,0.823838754,1.525998733,1.063089836,1.813106989,2.025785188,1.926679964,2.338013951,3.551886677,1.776586682,1.498403344,1.100897949,1.047041529,1.139100807,0.760061442,1.597015316,0.575285818,0.898392518,0.500990517,0.329441173,0.292148739,0.120418663,0.757598883,0.489023284,0.473735344,0.83935234,0.500778628,1.550226207,1.389338687,0.82116956,0.655121045,0.480996422,1.382358461,0.677033945,1.681195635,0.914526146,100.3412536
113,50:37.8,0,0,1.291213989,0.840548128,1.763880725,0.978949032,1.754813969,1.761509989,1.563992307,1.751265411,2.252411834,1.672169619,1.238764954,1.224902807,1.139089006,1.121544529,0.877860812,1.355226084,0.505491974,0.896772452,0.465229545,0.458274803,0.382371099,0.253512997,0.781513033,0.449544592,0.531912723,0.849027325,0.504005739,1.810485138,1.223123802,0.748295525,0.707009861,0.457133237,1.216329167,0.716690556,1.69335981,0.950987016,95.22314929
114,50:38.0,0.399971073,0.406036086,3.449455261,1.184179214,1.381422765,1.446910242,1.245157614,1.904264139,1.320518402,1.664320674,1.530987854,1.662896459,1.414288274,1.42212723,1.490938818,1.489766727,1.378007306,0.612817341,0.485909199,0.463552137,0.564725267,0.371308482,0.455397177,0.392456247,0.78927981,0.447879517,0.509282475,0.836369949,0.444456323,1.741145547,1.036213494,0.678261095,0.415307276,0.49424297,0.732292011,0.598436863,1.382656582,1.12645671,95.37040759
115,50:38.3,0.010064924,0.003281269,3.531219482,0.929014876,1.024025831,1.20474495,1.269062918,2.103793462,1.342964059,1.787949313,1.425519149,1.485493663,1.513815322,1.534906003,1.24982183,2.075332073,1.084443747,0.99259093,0.470545354,0.664135629,0.513375408,0.313995918,0.501262028,0.39234827,0.945298884,1.135140691,0.593745754,1.78054458,0.480325577,1.764532927,0.809110528,0.809813075,0.560109587,0.572331337,1.472157315,0.667522514,1.595230166,1.014822294,97.48494421
116,50:38.5,0.047054452,0.037849642,3.808547974,0.990181751,0.953441015,0.964283909,0.914709504,1.298586005,1.632649197,2.902998908,1.992111814,2.1129778,0.984075192,1.164273736,1.268877036,1.371128067,1.497551841,0.674377725,0.764941368,0.817288791,0.938991602,0.782530004,0.289875951,0.172917687,0.76548839,0.642229881,0.627098096,1.509017114,0.408132492,2.444043662,0.743704727,0.506141166,0.446587248,0.476563596,1.185556501,0.538571794,1.88845615,1.08376146,99.59948084
117,50:38.8,0.332277862,0.338782819,3.982978821,1.046565443,0.786348809,1.285927634,0.943422632,1.401972206,1.595182925,1.917846707,2.366852513,2.055891392,1.123789877,1.329145923,1.38231974,1.150789895,1.464931457,0.652253329,1.105067297,0.562567917,0.797482288,0.634710204,0.304922407,0.220300211,1.121957204,0.903183239,0.584702368,2.142027085,0.441953635,2.398495321,1.178735927,0.801540326,0.617156153,0.543929824,1.520402534,0.551354595,1.861012112,0.955122808,101.6473518
118,50:39.0,0.018035697,0.009970243,3.827980042,1.257259097,0.77526927,1.337542981,0.95983845,1.529610564,1.802532443,2.116304602,2.708848108,1.55784443,1.492383761,2.048685567,1.552133267,1.631130589,2.112907534,0.376439096,0.790785502,0.481685137,0.508541675,0.438065056,0.356117097,0.174436422,1.143832546,1.11160821,0.716800873,2.442754921,0.520227488,0.841127462,1.240882092,0.680623193,0.528342544,0.617699521,1.144465571,0.533204315,0.973241942,0.96944693,103.6829008
119,50:39.3,0,0,0.584114075,1.325536506,0.780105499,1.464805242,1.314865426,1.758690953,1.468706666,2.116021635,2.748722625,1.486752319,1.355308115,2.013677639,1.675583941,1.345804846,1.585600344,0.475789196,0.952499098,0.407430864,0.377684139,0.41953909,0.457958695,0.171928937,0.854721782,0.801922758,0.580866876,1.88717939,0.434103632,1.320014428,1.19673717,0.714533727,0.464840319,0.507797207,1.23226622,0.563306692,1.303992579,0.921272201,105.7184497
120,50:39.6,0,0,3.40625,1.626929093,1.241350687,1.573110549,1.622618712,1.40711284,1.354042123,1.745794494,2.847152198,1.576365422,1.112052657,1.709267186,1.597808106,1.602573381,1.673721177,0.36723855,0.502675347,0.397847045,0.360556695,0.639066014,0.468501434,0.201185278,0.606048288,0.499688996,0.380197707,1.072110051,0.37539014,1.949143247,1.366389286,0.589105047,0.387058269,0.374320934,1.017761204,0.474992153,1.674245085,0.837831885,105.5158962
121,50:39.8,0.010546839,0.023655867,3.577041626,0.730472293,0.798803298,1.250176957,1.343401463,2.194145591,1.397487978,2.752394432,2.639012467,1.430352327,1.340070475,1.568144363,1.028814916,1.253547307,0.772672885,1.771742405,0.998664064,0.777483637,0.474687878,0.340100225,0.500275106,0.137672718,0.798042779,0.91249099,0.464980434,1.680818075,0.370542609,1.68746014,1.022630184,0.754456576,0.581470526,0.565026629,1.439927034,0.606702742,1.648688379,1.066566247,104.6820831
122,50:40.0,0,0,3.732894897,0.77025718,0.65471119,1.529492047,1.377815418,2.159730241,1.388998182,1.704173916,2.18495051,2.054341334,1.051330758,1.670360759,0.856538964,1.105788554,0.668328495,1.942559215,1.381268623,0.763318263,0.434508904,0.440414004,0.350449721,0.26856195,0.753593638,0.898924293,0.382358452,1.309818853,0.463179232,1.456101178,1.404353644,0.868526353,0.532231764,0.682764283,1.080418467,0.95150093,0.98451112,1.095339614,103.8482701
123,50:40.3,0,0,3.871376038,0.721534189,0.71256493,1.812521444,1.460531892,1.582795274,2.10983876,1.816515522,1.887409492,1.457631178,1.008925016,2.206032717,1.263343315,1.570670047,0.725211718,1.911077384,0.893491848,0.436712336,0.310368049,0.62620476,0.325164469,0.291672008,0.786928222,1.403907788,0.444369942,1.954718323,0.565703048,1.10278109,1.290874351,0.78293773,0.636909996,0.637538537,1.294146015,0.887471414,1.59621331,1.242387148,101.0291928
124,50:40.5,0.215089662,0.181187221,3.769721985,1.001931413,0.916604785,1.277910872,1.154018141,1.796633711,2.164924207,2.358830378,2.389916731,1.564547607,1.050279859,1.450060592,1.021122139,1.114829422,1.218895668,0.818833257,0.978609569,0.766340438,0.597587101,0.529950637,0.295235462,0.177386481,0.727176773,0.986972899,0.406529215,2.201733829,0.472160516,1.221856204,1.344407986,0.597738815,0.811482065,0.508761963,1.752230765,0.80768901,1.69072904,1.326920874,97.67600903
125,50:40.8,0,0,-1,1.457560721,1.637490962,1.859323842,1.858493056,1.457128951,1.68986694,2.440945258,1.954865289,1.483605682,0.962672295,1.044934504,0.842691248,0.854016029,1.11894486,0.613147071,0.715080716,0.638228919,0.514932125,0.712891669,0.398867823,0.209568075,0.667012009,0.43136973,0.361342739,0.858970859,0.401260362,1.302497122,0.886814252,0.86886364,0.827108638,0.797270852,1.527743003,0.607359424,1.483579399,1.107321847,94.65001467
126,50:41.0,0,0,3.637779236,1.579260982,1.136689902,2.011679666,1.501821025,1.791556138,1.634147911,2.208578809,2.342493442,1.836811072,1.133142866,1.397191716,1.297096601,1.354963731,1.923027862,0.329276334,0.649277462,0.383238254,0.476569032,0.492589228,0.333153322,0.193289701,0.673407565,0.584546982,0.388586002,1.23344489,0.350530858,1.564208935,0.98665932,0.553026981,0.490381134,0.60266179,1.325811947,0.554207003,1.391623125,0.930254415,96.74998837
127,50:41.3,0.055736189,0.006053092,3.652488708,0.679274802,1.103937136,1.060670166,1.576105295,1.799910801,1.25588739,2.017961399,1.659019213,1.760123388,1.163443603,0.806765774,0.72428613,0.707755502,0.550721714,2.673143634,1.279889283,1.301695724,0.7864431,0.477533321,0.452382906,0.298700349,0.663535748,0.523252001,0.364152592,0.883726261,0.331054108,2.093453563,0.834239696,0.818422631,0.816153762,0.533277905,1.726456034,0.512158787,1.493725922,1.014734182,98.84996207
128,50:41.5,0,0,3.86315155,0.627384275,0.98191316,1.006652208,1.534183363,2.427858441,1.176590839,1.933944586,1.78958215,1.46208571,1.808760277,0.896384926,0.696045781,0.86436183,0.658070256,2.422111374,1.178233425,1.427193122,0.727156996,0.227717091,0.581301849,0.288937782,0.730491589,0.559670016,0.428026391,1.047822099,0.396562961,1.99462559,1.037752576,0.696428583,0.635783922,0.619030707,1.793371558,0.532297588,1.605144063,1.121466246,100.7317596
129,50:41.8,0,0,4.063301086,0.698398254,0.974710221,0.990937998,1.745194077,2.284275812,1.208484239,2.230614744,1.848478258,1.547843277,2.695672625,1.40383994,0.873503846,0.981988595,0.709359686,2.018507428,1.044763606,1.155283835,0.408167739,0.162399359,0.534603779,0.242527553,0.682015634,0.581682373,0.418503118,1.110688541,0.943996906,1.766212489,1.138252781,0.671476738,0.577371018,0.474766818,1.380760731,0.799929961,1.378976792,1.373564133,101.4331678
130,50:42.0,0.100725847,0.11332108,3.874259949,0.822656609,1.214729391,1.142315568,2.315427441,1.498099017,1.476566476,2.134688106,1.479407755,1.598907179,1.765911198,1.313540611,0.997029532,0.996971405,0.74674519,1.627829726,0.82572942,0.878022979,0.328795087,0.377998973,0.423568586,0.316648678,0.686464376,0.503290941,0.424251568,1.038407856,1.176103168,1.248751905,0.832385564,0.756247865,0.613219492,0.486073035,1.830440586,0.997739298,1.153203403,1.201077632,102.134576
131,50:42.3,0.150730154,0.182335691,3.689338684,1.086871672,1.292740832,1.246151929,1.563509186,1.745165749,2.751708768,2.441852792,1.575316255,1.781862037,1.407976501,1.631320076,1.270281292,1.538933914,1.396942463,0.658632582,0.502653329,0.631726512,0.392067083,0.406975169,0.203949882,0.259963734,1.034251747,0.859897542,0.491019485,1.475427721,0.70745642,0.739258045,0.653114243,0.8046852,0.722334243,0.481692427,1.414096982,0.876881619,1.14162758,1.012373758,102.3116547
132,50:42.5,0.004174375,0.005930314,3.827392578,1.705599484,1.301830875,2.049299385,1.638153174,1.520241138,2.459769877,1.807019847,1.477524262,1.878383805,1.261863348,1.617943777,1.900873859,1.912200867,1.491302537,0.393149011,0.401709333,0.256709116,0.377295883,0.521284958,0.216431857,0.374543665,0.794501987,0.871091568,0.501190546,1.289958536,0.71782666,0.732210315,0.735656913,0.908670203,0.593041201,0.5403249,1.306071138,0.864808079,0.958839654,0.899712225,100.2821801
133,50:42.8,0.109811417,0.116149873,4.085632324,1.147947589,1.190949785,1.379299232,1.346814687,1.844178783,3.389984355,1.693988368,1.654350651,2.257702945,1.492148491,1.56842648,1.191448576,1.895574311,1.687544394,0.516205625,0.442961249,0.608507875,0.473399713,0.36340001,0.13065785,0.356830534,1.17232334,1.053332351,0.488231269,1.543210991,0.600226761,0.725156448,0.866152182,0.797469836,0.661786736,0.565208628,1.325162036,0.741833313,1.088836341,0.886904914,98.25270555
134,50:43.0,0,0,3.982681274,0.539812706,0.790817542,1.036878046,1.462607129,1.965850455,2.4018221,1.919572141,1.661606006,1.642502491,1.627483727,1.424595224,0.804120727,1.089480292,0.61728217,3.00104954,1.160658155,1.199364152,0.47993324,0.312559618,0.253485503,0.31352163,0.704070107,0.925761555,0.490883454,1.939126643,0.631076203,0.785367762,0.962488331,0.61570868,0.671979551,0.632972463,1.990867584,0.762281933,1.148438835,1.111915689,96.55733672
135,50:43.3,0,0,4.108345032,0.626672733,1.01659981,1.093310137,1.596314886,2.021963764,2.498388895,2.137770643,1.725395631,1.300585641,1.704763679,1.1205405,0.82339391,0.954936585,0.57955165,2.753385712,1.030090647,1.110833515,0.559054154,0.290109832,0.307752085,0.271112909,0.654129439,0.609888031,0.409918748,0.884692146,0.510856957,0.874580904,1.055643413,0.707314151,0.649270398,0.544293949,1.260326817,0.605910524,1.680045626,1.307945527,95.38017273
136,50:43.5,0.019310929,0.008465541,3.777885437,0.798432699,1.12499174,1.182939285,1.74192751,2.118425238,1.903029014,2.695540071,1.487166711,1.035918287,1.715294503,1.114706967,0.801176418,0.773189167,0.581965169,2.152111124,1.149648046,1.055138299,0.515002345,0.275199831,0.507258217,0.249456344,0.683620305,0.833648552,0.431736671,1.244273745,0.585297163,1.215714113,0.806151473,0.937899439,1.212960261,0.637460437,1.944398601,0.72285446,2.233322126,1.46117687,94.20300874
137,50:43.8,0.084718689,0.109704664,3.790313721,0.618014502,0.997990671,1.134029635,1.828605909,3.015375319,1.753080351,3.409574968,1.892279198,1.491742363,1.403597687,1.207518225,0.866435306,0.824076024,0.562795794,2.875083691,1.215923466,1.017746119,0.452883175,0.236274025,0.382388088,0.154993877,0.639195122,0.687724542,0.420246202,1.164731803,0.426495656,1.632823774,0.708995612,0.70190975,0.8328633,0.550037198,1.763812266,0.916248641,1.918877781,1.277493138,95.27736798
138,50:44.0,0.191421405,0.220003388,3.702835083,1.22448735,1.7822949,1.591289061,2.055966186,2.519265205,1.758238092,2.396966239,2.300559942,1.303384503,1.337010876,1.407701693,1.31896933,1.041137186,1.265985324,0.645085123,0.538905328,0.476448787,0.345520166,0.296886993,0.436364852,0.181344559,0.856934107,0.524504888,0.525250174,1.038307785,0.475256411,1.245301114,1.002970408,0.8288445,0.897885888,0.633695445,1.516461696,0.895502767,1.67988483,1.045000464,97.3919046
139,50:44.3,0.053650647,0.065255458,3.555335999,1.219272315,1.946808365,1.635493724,2.117238018,2.665494048,1.798798956,2.593651604,2.476709991,1.813980856,1.256627046,1.455011559,1.14734778,1.283508471,1.457803,0.562600932,0.400200897,0.532912661,0.324611479,0.298549178,0.306467675,0.155672968,0.961798085,0.524613596,0.475743755,0.934152479,0.534190641,1.741558396,0.972182432,0.804425412,0.795726838,0.678151767,1.359317821,1.133098303,1.726982627,1.018085498,99.50644123
140,50:44.5,0.020124026,0.02009686,3.576454163,2.72128979,2.489053995,3.533446707,4.919020963,2.503242926,2.724128487,2.679862174,3.182865713,2.982341246,2.450619243,2.220033905,2.298836498,1.930343181,1.918744191,0.191517353,0.208128309,0.123110011,0.091571793,0.163012596,0.123087819,0.117238223,0.608543951,0.631166742,0.420102694,0.593071478,0.835712171,1.626340929,1.237957873,0.86307724,0.813849121,0.645722512,1.314093008,0.853657942,1.485531429,1.042317451,101.1073418
141,50:44.8,0,0,-1,2.474080674,3.105853936,1.935614005,3.273775068,2.558274023,3.32256564,2.734021966,4.2554491,2.400718004,1.840625029,2.082952793,1.924263633,1.76758311,1.957252019,0.206509195,0.182154175,0.268482926,0.146646511,0.212367285,0.125367591,0.08595133,0.641221029,0.412427423,0.575302704,0.74225394,0.619744815,1.173585673,1.419452325,0.810540769,0.724684077,0.578696158,1.166599863,0.861379714,1.624228845,0.911963402,102.5798333
142,50:45.0,0,0,3.948554993,1.896545819,2.029184905,1.892428198,2.265539975,2.581644086,3.139503411,2.885759072,2.925456596,2.325559106,1.814795469,1.824327141,2.122589079,1.521175222,2.374284822,0.222077134,0.323965777,0.248951452,0.241949958,0.213440065,0.136965649,0.118453056,1.363581638,0.94972888,0.614916818,1.63763267,0.977788557,1.577235403,1.086481608,1.089210119,1.266899092,0.548238912,2.033693517,1.39095677,2.129266857,1.071738395,104.0523248
143,50:45.3,0.074895996,0.034990949,3.698776245,1.851139158,2.39670052,1.658823233,2.924859174,2.278934158,1.7282807,2.104727553,2.347372831,1.564789019,1.944127183,1.539336657,1.738011441,1.467643494,1.285553091,0.420214385,0.284292666,0.346854441,0.222106582,0.225706231,0.369768516,0.202405374,0.328925097,0.25541521,0.416940704,0.427523799,0.317498816,1.48357787,1.087336931,0.473637481,0.417099772,0.397943828,0.812328414,0.372176729,1.638584479,0.974940141,102.8731058
144,50:45.5,0.046475088,0.025871161,3.832344055,1.531176297,2.13328255,1.374580341,2.859265285,2.284696372,1.619168006,1.656109853,1.9429758,1.207341136,1.432691589,1.547665373,0.941290893,1.053731368,0.716548474,0.911442398,0.444858313,0.772869225,0.225979208,0.305505334,0.51153822,0.310773134,0.412270927,0.415915662,0.353121095,0.764944922,0.307570248,0.659491919,1.142039867,0.880972459,0.842022597,0.515667706,1.413212765,0.490478646,0.884446146,0.973426162,100.9804824
145,50:45.8,0.014269296,0.033204316,3.830055237,1.568952802,1.61459475,2.04353952,3.018069848,3.133764636,1.604088957,1.353564117,1.912714221,1.457134726,1.156817641,0.926182129,1.073090651,0.772672178,0.774758504,0.822666417,0.80156951,0.456016491,0.357745613,0.27584729,0.427830599,0.386252302,0.410307553,0.446461682,0.281339971,0.615796861,0.244745231,1.354562376,1.070262857,0.830908188,0.932937291,0.5357696,2.006644137,0.663003332,1.491172031,0.75738936,99.08785909
146,50:46.0,0.027354978,0.030668692,3.899673462,1.208857167,1.698405164,1.664325299,2.508778908,2.131126712,1.436015164,1.301404247,1.657083121,1.050260823,1.269405262,1.308397805,0.893427111,0.970674883,0.648551526,1.275500181,0.606575558,0.672516057,0.30464763,0.369649764,0.663046228,0.463706824,0.538739443,0.537743163,0.327743905,0.912456959,0.358891326,1.052410151,0.988611381,1.004174704,0.940897701,0.610539422,1.749584693,0.602520656,1.438953926,0.776414311,97.29455268
147,50:46.3,0.042636754,0.00721147,4.077095032,1.571154469,1.851797854,1.528806705,1.910605925,1.799062388,1.642624084,1.69447891,1.782314853,1.536783606,1.126351145,1.269425509,1.173200221,1.314215304,1.335834773,0.476462111,0.410903559,0.557539043,0.412307902,0.493491834,0.396140363,0.33111542,0.34144997,0.29430706,0.286858882,0.514915171,0.274203769,1.557816996,1.003954368,0.401599551,0.414693985,0.373808132,0.774996225,0.437971488,1.665106073,0.954477544,95.50849258
148,50:46.5,0.038093556,0.038458442,4.160331726,1.740872878,1.465851738,1.851556628,1.480029749,1.74238885,1.831420426,1.786681523,2.108291856,1.686625882,1.32541178,1.148664967,1.796963264,1.116416319,1.629111721,0.352599809,0.61105989,0.300554893,0.588215114,0.433016146,0.323737632,0.265474079,1.328564174,0.653466568,0.653550364,1.046934855,0.399472229,0.653683336,1.051805629,1.419707014,0.857999913,0.673405813,1.348952718,0.525146953,0.709801164,0.891357464,94.38423842
149,50:46.8,0.023447735,0.01443269,4.140914917,1.417947316,0.734547621,1.503182918,1.231734568,1.310899027,1.531019565,2.095986851,2.391323039,1.73076259,1.030015489,1.342867983,1.29519824,0.935653013,1.477793932,0.47722812,1.45500747,0.513631822,0.604574117,0.740605619,0.377382502,0.199513918,0.919313839,0.811085023,0.516098269,1.159659115,0.493436093,0.856090109,1.232705662,0.882084141,0.63675376,0.598974024,1.063687747,0.627995308,0.75729087,1.080462496,95.66209476
150,50:47.0,0,0,-1,1.185897581,0.867109311,1.275942537,1.107986708,1.274049903,1.2227812,1.728804136,2.123840422,1.713331032,1.35447312,1.238865594,0.979440562,0.95258109,1.345877224,0.626537937,1.210665578,0.800185723,0.728519629,0.579486296,0.477320367,0.272353101,0.997816347,0.862477447,0.51169786,1.3856603,0.540183386,1.095582857,1.654534387,0.879209464,0.785090354,0.66660203,1.239273415,0.508109449,0.781902677,1.346789458,96.9399511
151,50:47.3,0,0,3.940093994,1.385495687,1.10871341,1.266833069,1.424406181,1.510695402,1.18299245,2.041796586,1.934833607,1.967943062,1.064969749,1.101512867,1.65059064,1.694883749,1.930568935,0.373860436,0.532158231,0.478234861,0.637347924,0.621563954,0.429541865,0.253130166,0.998008028,0.813671099,0.637111348,1.414236637,0.465620063,1.825310323,1.241434541,0.716232295,0.532265449,0.488984794,1.828800614,0.660497718,1.097251426,1.310064493,98.23591601
152,50:47.5,0.062556895,0.060399861,3.708183289,1.87119014,1.468529574,1.42858616,1.730973896,1.596800282,1.474735845,2.169278363,3.955196362,2.045075915,1.575298006,1.346503692,1.59438575,1.107074817,1.383218508,0.386359227,0.615092358,0.439036025,0.429044099,0.397545348,0.33157084,0.116551178,0.602746485,0.474422779,0.617299145,1.891363112,0.613895246,1.950283027,1.691813327,0.815383305,0.629319601,0.553106433,2.431408242,0.622274704,1.406379228,0.927896799,99.55950107
153,50:47.8,0.098233257,0.111633042,3.402160645,0.617934966,0.898590696,0.985583167,1.520546689,2.023248546,1.309232846,1.280347903,3.395648741,2.412615525,1.814462379,1.1449925,0.981762561,1.062232743,0.647719595,2.498447303,1.047655261,1.033475668,0.574377737,0.272397298,0.316588394,0.230011339,0.723100514,0.822041683,0.495492347,1.336416876,0.400579337,2.248576927,2.194506937,0.689849582,0.69540222,0.497420594,1.774757701,0.446673114,1.220215463,0.827450826,100.8830861
154,50:48.0,0.232592597,0.205393774,3.354270935,0.617569103,1.072183544,0.837567727,1.87672401,2.248880024,1.612560083,1.166956699,3.028389721,2.464579837,1.558191297,1.015404756,1.014274063,0.934055788,0.621754611,2.604326472,0.99852294,1.17713086,0.524759605,0.285373038,0.251617709,0.282965504,0.703330045,0.709070976,0.497886382,1.070904226,0.379802488,1.725391666,1.997344582,0.69859539,0.813928077,0.411144857,1.979301024,0.548154921,1.128913613,0.769654785,100.7134757
155,50:48.3,0.240415877,0.304568321,3.353431702,0.697941293,1.245337115,1.017768743,1.825969864,2.04996509,1.486196799,1.42324753,3.13301795,2.256294593,1.519128663,1.091972122,0.996190989,0.838743016,0.563720697,2.541658076,0.95737956,0.986298294,0.501527606,0.321113805,0.298213896,0.22426251,0.689448259,0.548266828,0.493950769,1.062729638,0.332640927,1.6717998,1.775117496,0.853604297,0.814047945,0.50464987,1.777071276,0.448877244,1.101196412,0.806389121,98.81896706
156,50:48.5,0.128103017,0.129366108,3.36630249,0.681034076,0.930670909,1.186879913,1.284613144,2.191547212,1.472416693,1.876885551,3.466948382,2.012594445,1.606098057,1.328944711,0.876995019,0.985355352,0.524745733,2.798222478,1.090463118,0.960718367,0.585761367,0.284103846,0.33745277,0.153679109,0.670294917,0.764494298,0.401076117,1.450867339,0.325592428,1.851029024,1.581882821,0.869933094,0.72206702,0.542795771,1.40246862,0.444276223,1.354215223,0.856376468,96.92445841
157,50:48.8,0,0,3.5912323,1.424164541,1.515840101,1.244845668,1.79957441,1.778925868,1.785844536,2.009606459,2.700255964,2.203252385,1.344944006,1.353402177,1.401518378,1.412089548,2.066678939,0.339755752,0.467180137,0.573172956,0.410585228,0.417963104,0.254151163,0.18428248,1.107765434,0.629907043,0.602373509,1.20851857,0.326127915,1.832617153,0.881842065,0.763369782,0.676188247,0.535035476,1.606927438,0.431361738,1.485426431,0.656291675,95.58735693
158,50:49.0,0,0,3.779457092,1.597505219,1.739081932,1.357073675,1.915458419,1.536387568,1.678324603,1.754372228,2.784886691,1.942736414,1.871484265,2.06884124,1.499201843,2.647692695,2.484478774,0.251954677,0.217176275,0.49151465,0.252348139,0.347786753,0.306697445,0.204677794,1.159624916,0.839459019,0.593257235,1.566998201,0.475302817,1.719408887,1.141694565,0.745631991,0.551381214,0.537014932,1.450821763,0.390197958,1.485392571,0.719223961,94.50777105
159,50:49.3,0.566512741,0.607641252,3.580978394,1.081840002,1.281887244,1.112255207,1.581650182,1.555752856,1.583123734,1.461160963,2.336191138,2.83026966,1.383662341,1.377875241,1.049489425,1.224384171,1.273006602,0.726116504,0.637136474,0.856677747,0.458859437,0.464546585,0.223181054,0.292950043,0.710816909,0.67260368,0.457362878,1.444438648,0.393707247,2.887248327,1.351577812,0.604073981,0.704192441,0.48471593,1.658057699,0.442673877,1.614995001,0.845338682,93.42818516
160,50:49.5,0,0,-1,0.660424738,1.324989623,1.024085323,1.872762639,2.168827822,1.508294787,1.567518885,2.201382727,2.190038134,1.685752853,1.598992985,0.849502196,1.43188297,0.64736731,2.338976737,0.527084201,1.149474529,0.333941739,0.273514919,0.302734623,0.289795518,0.763928665,0.918360112,0.508703861,1.752419595,0.528693565,2.372544147,1.282929662,0.779337141,0.849802424,0.613248747,2.052458,0.680197759,1.633987972,0.913524236,95.86723579
161,50:49.8,0,0,3.686408997,0.715634411,1.206317032,1.362637797,2.456684728,3.073235357,1.554251066,1.514576458,2.190685706,2.011050328,1.758004538,1.683290408,1.095920158,1.349688776,0.675072755,2.069942128,0.614193059,0.669638868,0.241819615,0.185090525,0.319930678,0.30138992,0.699269827,0.768552147,0.467528727,1.223320093,0.375642155,1.76272192,1.237075833,0.74128536,0.686912095,0.581312708,1.785379264,0.6566745,1.36232912,0.855278294,98.34902289
162,50:50.0,0.15276997,0.216152821,3.902755737,0.719033148,1.215991112,1.394759872,2.294372222,2.481240199,1.681625747,1.354922412,2.411356764,2.358450678,2.407279108,1.65810885,1.021444239,1.387136758,0.571132692,2.435084676,0.592857501,0.701917213,0.262859142,0.167419,0.252141222,0.306072354,0.719156367,0.731362232,0.441016973,1.140877669,0.406948527,2.521266584,1.284222369,0.905389016,0.641126384,0.602199076,1.578664773,0.419451588,1.797716969,0.721594455,100.6579794
163,50:50.3,0.01939521,0.005291102,4.071037292,1.424142387,1.702921186,1.237349965,1.909763538,2.292891759,2.30292165,1.47617463,2.711321159,1.450781446,2.255318692,0.9049719,1.104492608,1.050509577,1.277839981,0.54950306,0.558991798,0.731719512,0.578609165,0.193378651,0.299308358,0.249851119,0.555680331,0.411253365,0.450455721,0.889812999,0.44095835,0.732807555,1.256392164,0.619301262,0.666659385,0.5046402,1.877773687,0.44830461,1.163234055,0.684040779,101.0822598
164,50:50.5,0.10716985,0.142471515,3.678001404,1.484264774,2.755813418,1.473659502,1.825069605,1.856552987,1.620993779,1.681602282,1.939588544,1.505445689,1.742797764,1.055351205,1.102300835,1.096316497,1.050662272,0.6412472,0.330989518,0.615605817,0.519186698,0.309062033,0.409782643,0.306596436,0.7235837,0.30873351,0.400215063,0.931658104,0.44686243,0.919195743,1.04801413,1.022202686,0.776064166,0.535045164,1.611161176,0.476029862,0.98974715,0.908616912,101.5065402
165,50:50.8,0.015169701,0.023987275,3.441207886,1.722526116,1.461091846,1.544207617,1.358476621,1.389067382,1.655166544,2.183780613,1.893939993,1.091271612,1.205034245,1.33097989,1.130716083,1.395810127,1.187595386,0.488838815,0.490338663,0.572717878,0.553065206,0.597416616,0.553637429,0.241782453,0.621079461,0.588953179,0.420957575,1.244742832,0.507338291,0.921232571,0.716462312,0.900833402,0.616498384,0.574897539,1.27045799,0.584819124,1.397262895,0.826106695,101.5520113
166,50:51.0,0,0,-1,2.071495491,1.621035125,2.493242421,1.43170422,1.293833931,1.483350314,2.44269499,1.719510011,1.097372825,1.154368914,1.538670472,1.53684099,1.77347526,1.90648546,0.253210966,0.347842337,0.260979598,0.453942741,0.669540482,0.614330491,0.238081719,0.569769948,0.805040901,0.35746075,1.440023652,0.491674071,1.275841143,0.651465866,0.619084648,0.735843126,0.579914455,1.339915191,0.551075647,1.724591057,0.925456901,99.34567135
167,50:51.3,0,0,3.509277344,0.753432474,1.043006449,1.210476467,1.057880184,1.193712275,1.747561612,2.648788445,1.581751279,1.365164981,1.064531119,1.039639203,0.841590161,0.986323964,0.672616169,1.973278398,0.972060781,0.981619099,0.909244893,0.786940648,0.419162445,0.238679177,0.638849446,0.608163924,0.346760898,1.204195288,0.44838328,1.592991523,0.670452692,0.715608605,0.643114146,0.498753343,1.225323486,0.50279472,2.039204692,1.122734888,97.13933139
168,50:51.5,0.125784854,0.139964814,3.688453674,0.865165339,0.932778228,1.270219586,1.273052004,1.546314824,1.063014963,2.604415996,1.866309459,1.834130117,1.474212091,1.682062456,1.152669906,1.471975006,0.688288073,1.679309111,0.728318201,0.682992981,0.46699447,0.438674219,0.512897379,0.205733962,0.667654633,1.031592112,0.470870704,1.743004624,0.542740402,2.407245972,0.924154756,0.839229488,0.653711278,0.518890263,1.319175469,0.569285474,1.395178272,1.289648626,95.49911748
169,50:51.8,0.012223625,0.031924766,3.637672424,0.982524835,1.259997321,1.486551941,1.71012732,2.074820077,1.19606136,2.845286703,2.896797523,1.916864371,1.868416192,1.896492438,1.260501604,1.371362029,0.718179023,1.417175865,0.578733014,0.53367457,0.308333306,0.257956179,0.43616936,0.121326544,0.693521813,0.817300505,0.512248962,1.369529021,0.475295044,2.218932451,1.247497123,0.948791852,0.750929678,0.604112431,1.23494771,0.527800875,1.384542071,1.225314143,94.78258287
170,50:52.0,0.052080955,0.049061261,3.756980896,0.795319384,1.040314178,1.050418976,1.188125692,1.694070023,1.346623278,1.433380366,2.164674065,1.619462856,1.864628036,1.313514009,0.883712523,1.019688323,0.631646924,1.990600216,0.942688126,1.07727463,0.640771082,0.316574867,0.458545981,0.322289409,0.786641589,1.242010776,0.585726758,1.856703016,0.553099432,2.102335002,1.74479782,0.990476293,1.267133681,0.696220191,1.679461765,0.502507283,1.748143368,1.155351274,94.06604827
171,50:52.3,0.063794999,0.06973376,3.993560791,1.943060124,1.930974951,2.100674696,3.933271965,1.840848349,1.417556486,1.434895107,2.252689691,2.706502396,2.009628851,1.579312626,2.225229122,1.907394273,2.062689131,0.249505418,0.27150816,0.213927424,0.160982221,0.270312501,0.260646088,0.309370197,0.513354672,0.313020054,0.327543694,0.412305692,0.626349944,1.975651733,1.661156494,0.483581834,0.31688985,0.309209844,1.026845727,0.573745376,1.034766469,1.058106375,95.22162751
172,50:52.5,0.018100271,0.077409028,3.922447205,0.57023538,0.943189333,0.852628668,1.503431158,1.614572619,1.306430775,1.096760053,1.434158368,1.496130909,1.597739219,0.857977515,0.600616346,0.735335803,0.501195165,3.498959923,1.441834483,1.952733253,0.775247808,0.387647084,0.511615864,0.635757167,0.681910457,0.501112186,0.417878749,0.765038311,0.617523606,1.662026364,1.185341116,0.775844414,0.64275895,0.593216291,1.3405741,0.624029688,1.451291713,0.906479238,97.29097659
173,50:52.8,0.026550296,0.041230435,3.5493927,0.526354582,0.761620005,0.791785794,1.189086452,1.657310629,1.914660432,1.007708892,1.218525814,1.514130736,1.900133648,1.07500538,0.600573054,0.657643393,0.48283954,3.934764683,1.996508647,2.102937917,0.782304685,0.317549867,0.344941035,0.814385768,0.686957594,0.513895352,0.432806676,0.842545477,0.714555557,1.570327749,1.272367583,0.748868409,0.595144701,0.570605315,0.931957579,0.623240645,1.985723117,1.052235506,99.36032568
174,50:53.0,0,0,-1,0.522299317,1.050606268,0.816267389,1.226339319,1.67622735,1.93937655,1.177323275,1.773740295,1.288577468,2.009266666,1.103206571,0.593777636,0.825867697,0.465798536,4.110384244,1.15252282,2.063211346,0.739149873,0.296913195,0.400154152,0.478866259,0.723761978,0.800163163,0.531631142,1.62544696,0.809305476,1.449547018,1.438355154,0.811553402,1.017906909,0.73083447,1.806868786,0.675161737,2.181644151,0.954710792,99.94236607
175,50:53.3,0,0,3.683914185,0.62136553,0.750599219,0.724401847,1.048742612,1.98851801,1.849860572,1.521941284,2.398890839,1.559093621,2.502814603,1.936735832,0.894610063,1.496818951,0.827552186,1.944721666,0.890066835,1.54307371,0.492334985,0.200928615,0.346727916,0.273899738,0.698841434,0.740426916,0.487455906,1.560805604,0.693557607,1.012265452,1.284142568,0.524723378,0.371296652,0.394712706,0.845176362,0.551040333,1.201050356,0.814705512,100.1338001
176,50:53.5,0.023188548,0.025896083,3.899559021,0.89703333,1.095878221,1.007459972,1.31939267,1.644257184,1.723339609,1.766798262,2.873082274,2.159963708,2.272752068,2.031259135,0.943296857,1.404484612,0.997875262,1.117159451,0.649711746,1.05226182,0.373130372,0.267595121,0.268647421,0.196999432,0.859595013,0.821036939,0.438415728,1.766482473,0.523449683,1.979772103,1.581674458,0.772727219,0.640631085,0.468236796,1.147408514,0.378697665,1.579572688,0.97264868,100.3252342
177,50:53.8,0.293299644,0.424006296,3.951629639,0.912245473,1.277694247,1.312930407,1.962398908,2.106088784,1.475709215,1.944434876,3.333093096,2.095539363,2.175029784,2.122516908,1.566688215,1.780063761,1.13173916,0.968594369,0.439680801,0.486156075,0.240083077,0.218302202,0.323372726,0.154297594,0.933939707,0.703449759,0.552706905,1.522476961,0.474541455,1.989714626,1.339556292,0.752807978,0.5049222,0.463184503,1.407624653,0.459500115,1.401185901,0.781460313,97.53978089
178,50:54.0,0.006324367,0.001817418,4.053901672,1.022373077,1.410198403,1.654318774,2.137947605,2.781459126,1.951845773,3.006502557,2.773569637,1.913772589,1.859233498,2.059457778,1.581357129,1.479947466,1.178971258,0.829635597,0.479152195,0.382252946,0.227117213,0.193371908,0.26770974,0.119922134,0.827290082,0.589462507,0.480165206,1.321017048,0.381507526,1.168322535,0.870381639,0.717404348,0.561681482,0.502319369,1.371363503,0.570744659,1.191565506,0.943478969,94.408796
179,50:54.3,0,0,-1,0.904935024,1.197863188,1.341915217,1.888134202,3.942491195,1.669408686,3.012040123,3.639914471,2.370622113,2.087367717,1.888910843,1.398401986,1.302869289,0.765875891,1.442860035,0.640754897,0.532896527,0.280385584,0.121515116,0.252682404,0.091211179,0.798774799,0.783251373,0.541943352,1.674910188,0.43180951,1.859608014,1.139064016,0.943807345,0.720124416,0.520052201,1.674221536,0.815575127,1.309548981,0.942578883,91.96615268
180,50:54.5,0,0,4.364242554,0.762149177,1.201870729,1.098168694,1.514889017,3.450963674,2.58764156,3.233808736,2.902250894,2.697634034,1.661512024,1.318749942,1.455450189,1.111031659,0.692968381,1.893418414,0.748886164,0.625653091,0.500560677,0.174403872,0.14325601,0.106549328,0.762480371,0.57672337,0.570398516,1.132957461,0.529080606,1.697037189,1.039383172,0.838600725,0.623876855,0.430378036,1.301463423,1.098901439,1.627842734,1.158123989,91.70325764
181,50:54.8,0.424171485,0.414908469,4.232650757,0.684952762,1.022528093,0.80816013,1.071365461,2.963459333,1.723301004,3.590788836,2.814249019,2.007623843,2.069391343,1.368520615,0.893765183,0.991008487,0.598285635,2.440230231,0.986841438,1.384455964,0.682041836,0.163064116,0.289039045,0.098957248,0.792487913,0.730362551,0.550153084,1.632505245,0.763695871,1.887652738,0.896380884,0.90728701,0.753592161,0.497459284,1.278029512,1.093646044,1.620320395,1.143720563,91.4403626
182,50:55.0,0.085537187,0.055839613,3.770568848,0.67423681,1.000212012,0.881392092,1.207713533,2.383225656,1.678077005,2.691122921,1.974479129,1.495290244,1.560580163,1.513300726,0.986999618,1.406433132,0.591681497,2.506683793,0.710867804,1.149512944,0.547155573,0.268873965,0.398531463,0.188197529,0.821722428,1.058673435,0.601272226,1.916371431,0.590886549,1.546386704,0.78164505,0.936374572,0.752896006,0.536936971,1.529390473,0.902366964,1.735419581,1.065345731,92.24750455
183,50:55.3,0.553191662,0.631431394,3.510795593,1.252685443,1.462505781,1.165286884,1.721884064,1.851620452,2.020351216,3.074677993,2.006119149,1.37518177,2.455127192,1.549585599,1.39635056,1.416670378,1.525423677,0.523320185,0.482651428,0.61457187,0.374783551,0.219975359,0.359925834,0.162122629,1.15254622,0.944504773,0.672923939,1.509623641,0.951650652,1.036909569,0.63543062,0.946476637,0.975063581,0.561570613,1.677478735,0.717720783,1.523377894,0.973892575,93.75619393
184,50:55.5,0.202892939,0.361455226,3.42830658,1.543763164,1.41689781,1.581587908,2.014082374,2.182466495,1.531516794,2.461482747,2.736203984,2.639919582,3.200555729,2.485186907,2.161370995,1.819298884,2.480779348,0.261114619,0.387933619,0.292534671,0.199785385,0.143161757,0.247336117,0.148475478,1.425558539,1.267421772,0.671856394,1.783812855,0.875955451,2.415733969,0.819225469,0.887110239,0.98708747,0.491632372,1.445664316,0.597316086,1.401458275,0.736973328,95.26488331
185,50:55.8,0.030639976,0.103214936,3.671272278,2.074695331,1.738341158,1.84292478,2.807035407,3.149622023,1.835467075,1.465226566,2.489321395,1.325021483,3.22424458,2.004842525,2.146880793,1.506582097,2.666294771,0.180774642,0.381831879,0.252746098,0.177693624,0.098472187,0.41117858,0.274166409,1.176378831,0.914387694,0.624274618,1.278776008,0.690120327,0.921133132,1.346287768,0.915363033,1.055048886,0.535889634,1.790449618,0.674148045,1.275986508,0.792431467,96.28272642
186,50:56.0,0,0,-1,1.305480281,1.209450607,1.217310582,1.497243228,2.862783236,1.301350687,1.371263075,2.713339675,1.601043788,2.334626108,1.570862219,1.726012908,1.540324816,2.307804404,0.331917909,0.536783986,0.475942583,0.425176789,0.149621566,0.479957126,0.268766449,1.54023303,0.737100832,0.792557078,1.276040406,0.404072393,1.352312491,1.815404386,0.871280012,0.578765621,0.558969237,1.216238339,0.495484767,1.099178425,0.917466038,97.21258766
187,50:56.3,0,0,4.147567749,0.949086538,0.669719571,1.044082401,0.943558084,3.379979263,1.491877426,1.812942381,2.223763297,1.225083815,1.700140436,1.753594035,0.949905649,1.52900524,0.94193957,1.118590548,0.976557986,1.008288362,0.604369168,0.174020803,0.547143262,0.248043266,0.660122947,1.141548395,0.470149657,2.182644498,0.301686264,0.908181186,1.214852297,0.66513163,0.500009602,0.516761831,1.174417693,0.599770052,1.105961072,0.990418909,98.10304045
188,50:56.5,0.008787979,0.038802699,4.313339233,0.939531267,0.797158151,1.146006433,1.08249616,1.987709219,1.144509863,1.773114193,2.418398738,1.452271549,1.617298477,0.88315787,0.955736481,0.918376961,0.782028384,1.36102545,1.365949138,0.913008416,1.046008689,0.31106917,0.60163436,0.233203673,0.633575178,0.662548658,0.464444951,1.12723396,0.427964736,2.077364858,1.642616123,0.761179136,0.575097248,0.556907591,1.381662865,0.525981731,1.63713499,1.204328267,96.56987381
189,50:56.8,0.159405562,0.171428654,4.257247925,0.883872739,0.839856497,1.382091102,1.135067508,2.203536968,1.487896551,1.546517117,2.449134528,1.828962802,1.669972198,1.088605075,1.296375048,1.250880824,0.950342128,1.190502409,0.951872936,0.558126529,0.809297043,0.271750541,0.367470424,0.264017447,0.719604799,1.067612433,0.527473168,1.734939047,0.454966895,1.703587877,1.734480374,0.669273776,0.716807885,0.562349586,1.808987469,0.600331176,1.385901629,1.095245507,95.03670717
190,50:57.0,0.055079135,0.071170332,3.562431335,0.850581669,0.780660653,1.433334744,1.045869368,2.810064761,2.121077722,1.715622008,2.728352191,1.484696444,1.85871987,1.427905902,1.189802843,1.355547462,0.873223394,1.346351996,0.944980792,0.586377597,0.669611599,0.19145633,0.317545344,0.213637733,0.74379248,1.35518261,0.497130117,2.484704141,0.456804055,1.178555869,1.682372665,0.724506757,0.780450535,0.598883986,1.81992101,0.690609166,1.683716969,1.05789699,93.71503786
191,50:57.3,0.051454666,0.052106586,3.468528748,1.30588812,1.306291414,1.247425681,1.392097284,2.860955027,2.275563033,1.851450076,2.853077481,1.971628298,2.22608937,1.723890261,1.974658958,1.462862876,1.636923913,0.467805729,0.523306717,0.405969325,0.416697407,0.157016891,0.222887692,0.18931038,0.907625177,1.488503202,0.785693778,2.754569767,0.352211006,1.536177809,1.648209407,0.724075766,1.329187434,0.496336136,2.224404406,0.452659207,1.772986034,1.069573978,92.87758611
192,50:57.5,0.009296871,0.018595562,3.722259521,2.401805613,2.435534199,1.977671898,3.501727965,2.743355349,2.329790988,2.211580399,4.21072949,3.975429134,2.056735557,2.251670276,2.304427392,1.792310229,1.837469327,0.226590682,0.229082854,0.219423293,0.126827316,0.177230914,0.107968986,0.107384086,0.587852149,0.384183795,0.575994019,0.717141605,0.42254009,2.78387975,2.293069399,0.768397366,0.522059605,0.494321144,1.115276442,0.563600708,1.631486246,1.204377377,92.04013436
193,50:57.8,0.249863842,0.312639817,4.026756287,2.068889228,3.062433213,1.671466827,3.425356406,2.955056027,2.179782002,3.240112281,3.191321184,2.077214299,1.843636318,1.576176997,2.177542552,1.332964775,1.591207305,0.303763786,0.244971015,0.274748663,0.185220584,0.18355196,0.220854185,0.096709564,0.731685532,0.366971727,0.595570055,0.792238403,0.44267499,1.588216957,1.189468475,0.951338214,0.843102853,0.457155517,1.721696799,0.709537659,1.666639181,1.207653881,92.76883823
194,50:58.0,0,0,4.12008667,1.351120592,2.154207933,1.094404081,2.26924028,2.343042419,1.855392782,2.702255427,2.565592982,1.848058709,2.880544528,2.110579048,1.506748574,1.758837156,1.537073521,0.48151658,0.263928778,0.606431158,0.208793942,0.148164874,0.291640862,0.144240043,1.058075409,0.595678542,0.712227112,1.388873494,0.80623765,1.536338662,1.080837284,0.930070977,0.729581722,0.517315411,1.49328104,0.655795804,1.542435665,1.138410667,94.31881881
195,50:58.3,0,0,3.895973206,1.334009397,1.740485561,1.59369404,2.029061663,2.923355839,2.347080235,2.83132707,2.565391645,1.509482481,1.960835504,1.863325191,1.652282252,1.797579128,1.655021085,0.452936772,0.319625602,0.379761394,0.264494167,0.174452483,0.282256523,0.13767538,1.173580144,0.694682477,0.606437662,1.197344765,0.494977465,0.79018648,1.0364927,0.945949846,0.672618413,0.584934012,1.303844531,0.737948319,1.22865359,1.143938332,95.8687994
196,50:58.5,0,0,3.801330566,0.763727,1.221384933,1.142816745,1.401906263,3.057016525,1.312633138,2.138751426,1.804233486,1.100511168,1.513129534,0.862012918,0.731806873,0.783964654,0.5757356,2.274252975,1.044361755,1.195712918,0.827498566,0.216185273,0.692248752,0.259147455,0.691931918,0.637576538,0.380282178,0.893220202,0.29772145,0.867361701,1.048982081,0.917864186,0.993318224,0.593862748,1.452659199,0.601494698,1.034544442,1.243470947,96.90778976
197,50:58.8,0.017916442,0.030488051,3.77722168,0.626176332,0.828905822,1.178171595,1.321014928,2.722017771,1.310413568,2.285560883,2.504864993,1.46679296,1.41078389,1.354829939,0.92935246,1.096999004,0.583278672,2.737960987,1.099736342,0.91329483,0.558737074,0.26040454,0.520262834,0.174671835,0.760051833,0.892075271,0.515433603,1.669322514,0.42683966,0.949529225,1.169454266,0.815950405,0.674062951,0.653432639,1.627658127,0.823559971,0.848296941,1.06706706,97.8797271
198,50:59.0,0.012844093,0.007049219,3.752876282,0.594932618,0.963565934,0.92525812,1.36706495,2.169993993,1.162218785,1.798237374,2.302988613,2.017452741,1.78102738,1.578956977,0.97661376,1.379914112,0.581414591,2.890988028,0.752084271,1.10666011,0.463276803,0.258744348,0.426489889,0.241468892,0.786649654,0.976537215,0.530064643,1.718209462,0.567558144,1.738462313,1.172806353,0.804939445,0.681896058,0.502190973,1.487630105,0.69150973,1.001497341,0.915759724,98.71682631
199,50:59.3,0.032310377,0.007969331,3.743026733,0.762888041,1.427832585,1.081523926,1.761124891,2.632170174,1.235007237,1.844322506,1.938487549,1.951469595,1.284055664,1.138596415,0.869303956,1.022865827,0.577022838,2.271674959,0.684705855,1.063634002,0.498700763,0.295870854,0.414924145,0.279704928,0.747118285,0.530437614,0.497676853,1.065090335,0.355266872,1.71410192,0.922026345,0.987773042,0.740445218,0.619172868,1.647429305,0.728257264,1.084786707,0.877237484,95.47507243
200,50:59.5,0.016847252,0.015430999,3.768684387,1.362180977,1.708192215,1.36285052,1.875711866,1.401837861,1.51330838,2.124008849,2.004304936,2.918405103,1.380813336,1.381347357,1.440315473,1.252351696,1.09735487,0.668987639,0.467451926,0.5094413,0.385949936,0.516615274,0.226426361,0.234898305,0.916543685,0.863769612,0.683537195,1.150032278,0.59828006,2.356154304,1.036088118,1.13773439,1.178171062,0.646774292,1.561612421,0.607389586,1.221759121,1.097966827,92.23331855
201,50:59.8,0.006302027,0.003798162,3.906234741,1.06501812,1.395970997,1.29980295,1.464879555,1.876060667,2.365727822,1.7748671,1.568329145,2.239358926,1.43037536,1.383124354,1.200448102,1.151406518,0.95071867,0.987622512,0.622149736,0.640883503,0.493556475,0.372651695,0.188760672,0.359250141,0.797844957,0.551290759,0.480985277,1.211571757,0.509182578,1.416987959,0.979886656,0.893765278,0.668387662,0.520793927,1.283186643,0.667836873,1.496949774,1.10893086,90.25253342
202,51:00.0,0.194392783,0.147991188,4.093559265,1.140110391,1.605878863,1.411951508,1.546138072,1.598264746,2.673895692,2.738280363,2.705597655,1.541986969,1.301488625,1.043616007,1.049783693,1.116114878,1.090773026,0.804116006,0.55792821,0.674652907,0.619742092,0.480740713,0.242535232,0.134976721,0.835298867,0.411245583,0.379014909,0.802953529,0.428499997,1.059931161,1.292327359,0.873080737,0.591704852,0.509772323,1.189591778,0.526210084,1.837982696,1.307938239,89.98476243
203,51:00.3,0,0,-1,1.280936944,1.129120687,1.494528689,1.254207771,1.437170507,1.991345336,2.396213048,3.32261616,1.30719413,1.91045866,1.30806669,1.295591321,1.174934519,1.079991826,0.722855983,0.753782364,0.516449325,0.609537776,0.364211839,0.38416105,0.125601376,0.691872974,0.526866531,0.411133569,1.063357519,0.831372507,1.369063772,1.783113659,0.820604037,0.506322599,0.474262913,1.019574364,0.625412144,2.08559593,1.285950591,89.71699144
204,51:00.5,0,0,4.157493591,1.395817552,1.330247863,1.557402667,1.414593798,2.152006581,1.871547523,2.030749892,2.301953605,1.584920806,1.451612449,1.512970638,1.470912692,1.30818425,1.254363798,0.571146912,0.57464352,0.436528085,0.467237564,0.320114776,0.337125477,0.213917835,0.634220621,0.701933381,0.486878122,2.01133664,0.407075536,0.806420822,1.116623386,0.70574125,0.71377207,0.515506658,1.880554893,0.603486994,0.952258867,0.985068863,90.6256552
205,51:00.8,0,0,-1,1.147881792,0.826162684,1.797031428,1.497461622,3.406549235,2.162053527,2.97957937,2.289461364,1.678518595,1.570208694,2.027001963,1.398635346,1.144797803,0.721796841,1.206946045,1.05731803,0.397868749,0.329450469,0.186951069,0.275554432,0.14659249,0.721928004,0.77958271,0.465414371,1.649302043,0.470915728,1.252675626,0.804277787,1.148090382,0.562599039,0.597985925,1.218433211,1.021646117,1.613536939,1.046713231,91.76510281
206,51:01.0,0,0,3.947189331,1.123197147,1.008429312,1.899064821,1.505889031,3.308668003,1.97118163,2.312709524,2.992498116,1.326130428,3.202651716,2.115879908,1.288152999,1.419114954,0.763412299,1.166231737,0.698774363,0.408782939,0.313845579,0.094370683,0.38254904,0.144492407,0.676365529,0.782110137,0.371990504,1.392163091,1.109999449,0.716291938,1.245569424,0.99512653,0.555770895,0.54840852,0.990813855,1.146743382,1.064707875,0.962620579,92.94495051
207,51:01.3,0.098656837,0.09482979,3.683067322,0.970039184,1.003937891,1.749580245,1.595248682,3.319111419,1.956711939,2.091652076,3.061717659,1.398363595,2.340230762,1.907085431,1.270941852,1.200643713,0.758630434,1.35887798,0.829619599,0.449718188,0.328701327,0.128741773,0.365471063,0.156151232,0.685414469,0.796849573,0.431387382,1.375924469,0.657203152,0.856604937,1.07400519,0.87642001,0.666298812,0.593848445,1.150940414,0.932100596,1.198636115,0.733720556,94.33689865
208,51:01.5,0.014161846,0.008840798,3.538299561,1.108221617,1.085046941,0.837141003,0.999349158,3.221357266,1.677652537,2.065694997,2.054404046,1.347126088,1.769242115,1.29806998,0.928205636,1.173979571,1.125606423,0.801653735,0.785038459,1.286936696,0.770876209,0.175458268,0.442476016,0.235639418,0.732581794,0.681842731,0.503307165,1.553347623,0.444833549,0.823322134,0.905153087,0.721267189,0.630191008,0.453928579,1.195880548,0.809933119,1.025329759,0.910127785,95.72884678
209,51:01.8,0.098518522,0.091229605,3.564445496,1.127616523,1.233780417,1.036686198,1.398962518,2.153411534,1.816029944,2.18728095,2.216004825,1.617765868,1.529958243,1.299088904,0.943500186,0.975245439,1.09409581,0.810556353,0.831090273,1.022376112,0.550243661,0.303524245,0.340377878,0.206312113,0.930640569,0.747557378,0.528992623,1.119800457,0.530980709,1.222043674,0.816548082,0.959153369,0.945732855,0.581239262,1.205890422,0.747353719,1.371810315,0.805963978,95.54219697
210,51:02.0,0.335580538,0.317289985,3.795082092,1.183372181,1.137605917,1.026857773,1.439263869,2.517807113,1.870359446,1.886403312,2.331479032,1.709865622,1.90658535,1.567870322,0.960917496,1.469265042,1.201441184,0.703357511,0.598284859,1.01345298,0.443148657,0.208315359,0.312689244,0.227370405,0.910076269,0.844858869,0.541067123,1.323104537,0.450857945,1.17231826,0.920327497,0.896389232,0.654147768,0.578196342,1.214575292,0.595396026,1.282356054,0.74463841,92.69060225
211,51:02.3,0.023582987,0.00722022,3.978523254,1.132735529,1.075364579,1.029645052,1.370490071,2.181872681,2.227038395,2.053488833,1.864706307,1.725524145,1.704386351,1.173763147,0.996414345,1.085709422,1.072288679,0.823303111,0.856506506,0.974703425,0.621646707,0.268907273,0.260226341,0.26115432,0.86373218,0.747000343,0.521973518,1.149255199,0.439257038,0.780618823,0.907154927,0.912422323,0.739882784,0.539381486,1.341874503,0.56231554,1.007501458,0.998995126,89.83900753
212,51:02.5,0,0,-1,1.500283569,1.094097129,1.458341661,1.290447639,1.529361404,1.511893566,1.842986241,2.107923111,1.823755521,1.760244323,1.811243388,1.522478576,1.465026851,1.609693269,0.414079299,0.623876371,0.450390817,0.427841393,0.371464163,0.362670442,0.257408653,0.737268908,0.823051979,0.525613321,1.556504214,0.630562232,0.891371416,1.204556729,0.687157268,0.614663688,0.503470995,1.108954877,0.547854368,0.738947021,1.053160557,90.00722024
213,51:02.8,0,0,4.357093811,0.5921381,1.01533186,0.820703178,1.347110279,1.901132955,3.722756963,2.16368413,2.016352936,1.17715983,0.921852891,0.914787819,0.796380195,0.837508453,0.600135967,2.814021032,1.17598772,1.530007056,0.811477489,0.570592275,0.22819172,0.229213181,0.714151867,0.560863655,0.463074134,0.998511043,0.360035763,0.474167922,0.940750558,0.704634538,0.679948646,0.477217308,1.470400526,0.742500089,1.499551624,1.009489468,90.94935346
214,51:03.0,0.028618019,0.025306819,4.28943634,0.607466964,0.883099264,0.851523406,1.478076712,1.705990376,1.850903395,2.006807144,2.112653262,1.427281578,1.164988298,1.062334315,0.825298749,0.921411161,0.640688251,2.569393231,1.228957909,1.422958463,0.636856837,0.503155078,0.378535476,0.235866432,0.695205972,0.496752542,0.444978124,1.005732628,0.393231488,0.732604135,1.089823823,0.659157804,0.476097775,0.45911773,1.399324069,0.57584195,0.950043427,1.03522252,92.05799088
215,51:03.3,0.005245908,0.00898605,4.237373352,0.595259024,0.889289042,0.973480883,1.083366604,1.861348338,1.79590736,1.620895569,1.888443561,2.188454049,1.248392225,0.907113135,0.775301156,0.887608225,0.596824615,2.814798333,1.266880761,1.32495809,1.017567202,0.430349486,0.254436046,0.326693847,0.684571696,0.540196274,0.40730755,0.99861433,0.387567196,1.683035187,1.271583684,0.682775926,0.541219214,0.511422059,1.192646622,0.577861302,1.381146331,1.091430214,94.12515249
216,51:03.5,0,0,4.216621399,0.900069988,0.726382304,0.884737054,1.031237403,1.991855547,1.338894286,1.760812965,2.258390269,1.702745659,1.089728019,1.203795362,0.886510482,1.235169757,1.06559611,1.042632102,1.114571914,1.274975703,0.805542907,0.460706185,0.438635654,0.251470925,0.609653611,0.563186826,0.50470322,1.162156241,0.501648513,2.349700346,1.413061138,0.514952066,0.331200583,0.503693581,0.995567039,0.916936479,1.847604397,1.101730027,96.1923141
217,51:03.8,0,0,4.447601318,0.842850731,1.399679759,1.105409543,1.49790263,1.713889067,1.583385802,1.865772089,2.445668429,1.197567868,1.39844291,1.205000868,1.06919573,1.179709195,1.063012287,1.116120404,0.605614623,0.84609587,0.55402461,0.417227139,0.527367204,0.219151189,0.755488783,0.36164116,0.412822184,0.879341586,0.582989644,0.882456877,1.474169422,0.599018733,0.429073379,0.426804531,1.093084751,0.714494363,1.166756162,1.12462676,98.04335473
218,51:04.0,0.099089934,0.105170025,4.5883255,0.847548836,1.424247634,1.143426737,1.585030488,1.909538716,1.573942366,2.025169259,1.956750518,1.460525706,1.65312137,0.98978086,0.892502885,0.895083343,0.781228968,1.510278115,0.784424262,0.97990061,0.637416539,0.316786592,0.435012733,0.252349946,0.639101931,0.306023641,0.402989119,0.629500296,0.56456519,0.756566726,1.236812631,0.693356391,0.486941747,0.516288004,1.00807886,0.652135474,0.815317676,1.280058391,99.45954953
219,51:04.3,0.016050848,0.020598428,4.678085327,0.912841622,1.536383184,1.25296108,1.776177051,2.196110944,2.041862953,1.936207509,2.690848389,1.386513522,1.833163505,1.087400235,0.965303198,1.004186594,0.845120244,1.296241916,0.648165686,0.826796585,0.517755025,0.248395956,0.353223265,0.191937074,0.655788374,0.296864883,0.415980689,0.676585445,0.493529428,0.89988014,1.253621428,0.708338165,0.454196677,0.53994187,1.105145558,0.591243157,1.325217454,0.902046816,100.8757443
220,51:04.5,0.343661568,0.047271257,1.521385193,0.879720366,1.300144826,1.321239461,2.077467739,2.311696459,3.638592016,1.630215262,2.438411824,1.841065524,1.527535399,1.426823115,1.019663662,1.025082018,0.729908596,1.557352324,0.750325407,0.742269339,0.337361544,0.283189997,0.149278545,0.251563709,0.65816488,0.414038573,0.413733542,0.71541657,0.506273906,0.876372886,1.334256511,0.793251446,0.525138573,0.536099404,1.041653187,0.766169868,1.732020585,0.892025418,100.4204415
221,51:04.8,0,0,4.880767822,1.064057485,1.316066927,1.481665102,2.241419657,2.246299915,2.204099081,2.845201092,2.949937979,2.166176174,1.45547186,1.376941332,0.96385108,1.024244804,0.654878229,1.435074197,0.74185368,0.700228866,0.324012218,0.305864058,0.209447467,0.119144541,0.634088064,0.523712905,0.363414997,0.768451881,0.371779242,1.689532634,1.222500438,1.030277264,0.672926268,0.55865406,1.250905257,0.573784834,1.719111017,1.179095834,97.11063221
222,51:05.0,0,0,4.824905396,0.74879542,0.868127167,1.247031785,1.377898184,1.772086489,1.615014979,5.531632038,3.214482753,1.605726101,1.156652571,1.512947592,0.921109202,1.235492701,0.648269317,2.060067041,0.932344619,0.870585353,0.479688147,0.487879037,0.385613277,0.056238745,0.731881103,0.821943143,0.45446147,1.475621181,0.479077567,2.037187478,0.728852937,0.845372755,0.577543818,0.615266785,1.34390362,0.733986078,2.048972294,1.254244172,93.80082291
223,51:05.3,0.014150952,0.015636531,4.251678467,0.790604976,0.824559409,0.990480578,1.227123446,1.931502673,1.669616571,4.15337186,5.103703256,1.317311106,1.598070839,1.52703091,1.11944378,1.136069962,0.775180349,1.631690187,1.067512505,0.901886213,0.533659098,0.323972882,0.454668535,0.047175202,0.782876764,0.83353958,0.597563534,1.645616145,0.556983442,1.857338755,1.844320184,0.798454536,0.604982902,0.528722465,1.32241865,0.673196069,2.354070764,1.50089987,93.26157126
224,51:05.5,0.183913919,0.260749323,4.275550842,0.675864585,0.726204488,0.881424358,0.973818582,1.74701702,1.475856523,4.487652474,3.733202039,1.819515551,2.447349249,1.367124708,0.844674878,1.117422487,0.623660838,2.372421416,1.232320475,1.343152653,0.751127756,0.233887447,0.372391783,0.059689685,0.786047727,1.094709708,0.577172475,2.220954482,0.866720967,1.833669755,1.289776463,0.851844124,0.711443624,0.602283661,1.582011305,0.618700532,1.487337368,1.550430026,93.82125588
225,51:05.8,0.252370411,0.336008109,4.402740479,1.301942902,1.326702067,1.159701091,1.385368743,1.541427552,1.439755415,2.272944862,3.598061515,1.981096127,2.536890063,1.548675628,1.193555613,1.311359272,1.401629322,0.547992844,0.574784308,0.722455788,0.466094686,0.255726206,0.35059501,0.122276364,0.893521147,0.874668498,0.615772125,1.756427997,0.944220364,1.870462336,1.779253449,0.829972303,0.884902047,0.598306101,1.571213754,0.573713187,1.359352653,1.123978834,94.3809405
226,51:06.0,0.008125045,0.017577689,4.347572327,1.187116972,1.290091969,1.273011385,1.67549805,2.193524943,1.363747824,2.135289047,2.596674973,1.276542764,2.685937501,1.618113776,1.299732083,1.270907247,1.04805829,0.803750116,0.609909604,0.604385272,0.368847648,0.169731137,0.574421334,0.180353982,0.703493002,0.549694608,0.474096654,1.186748458,0.674467229,1.350229059,1.469070907,0.796834003,0.557992411,0.464349881,1.228834929,0.550817243,1.442467885,1.208041456,96.95400538
227,51:06.3,0.060685919,0.070940684,3.986480713,1.173314022,1.210436887,1.357225005,1.480572694,2.054493401,1.386614857,2.545731813,2.264941533,2.683668524,1.365692286,1.275126728,1.252226767,1.161178935,1.016361161,0.838566828,0.711473455,0.58838984,0.529684075,0.356403855,0.268729459,0.173432448,0.671683488,0.599065696,0.403806102,1.07299786,0.360943522,2.879754153,1.197206046,0.775409063,0.624478445,0.437664929,1.245877211,0.542989143,1.487929623,1.345626575,99.54330719
228,51:06.5,0,0,3.840751648,1.242734046,1.856603613,1.560651701,1.882395311,1.992203963,3.318628001,1.97305064,2.385359054,1.364011513,1.919587418,1.952529874,1.738458605,2.831498022,2.139024385,0.376188979,0.190223666,0.368578209,0.272076781,0.261491939,0.220914077,0.212475083,0.738309798,0.41968166,0.485222296,0.915381962,0.471158262,0.634058836,1.406703712,0.428944489,0.275183836,0.435594497,0.882501588,0.488981824,1.542659566,1.163555506,101.980756
229,51:06.8,0,0,3.658073425,1.277139027,1.437698613,1.081806811,1.43850289,1.953188999,2.77260346,1.916515219,2.632182657,1.340574402,1.844104212,1.233224783,1.122011343,1.255182063,1.324052791,0.591366233,0.554147556,0.823859286,0.56369868,0.277632479,0.269042764,0.198231061,0.754707635,0.562391795,0.518862617,1.008324991,0.490270945,0.525767104,1.330445878,0.727966877,0.644169422,0.500270444,1.176167098,0.519272072,1.087402303,0.968709283,101.4064538
230,51:07.0,0.002859113,0.014298506,3.849159241,0.596405862,0.944107987,0.943778212,1.167883788,1.799781913,2.12732965,1.577574897,1.58140054,1.048408103,1.474912697,0.760020014,0.664934272,0.69502526,0.482312489,3.476398783,1.523974637,1.593497313,1.126614513,0.376715772,0.448368236,0.400837302,0.715445443,0.530825677,0.444973141,1.03807544,0.395947091,0.527808728,1.083834163,0.884687554,0.721062658,0.631575139,1.595157307,0.483159725,1.070979091,1.081212207,100.8321516
231,51:07.3,0.421097772,0.554982757,4.177978516,0.654892889,0.869006761,0.900732555,1.069220103,2.163348012,2.098876694,1.677509114,1.30616731,0.959367297,1.685825563,0.954809396,0.667901895,0.885155112,0.551311529,2.769699488,1.300042239,1.662231334,0.979526524,0.274195912,0.496624527,0.456390191,0.724073074,0.637261368,0.47513312,1.234739715,0.451054853,0.648690117,0.892774967,0.86011317,0.625635474,0.640764568,1.382693269,0.578819446,1.419185929,1.146589822,99.95443607
232,51:07.5,0,0,3.927398682,0.615764589,0.812872087,0.815757519,1.030379548,2.84431905,1.642160146,1.386536086,1.913065635,0.778359343,1.301714101,0.85525331,0.610358621,0.759769346,0.531731765,3.054166327,1.619183321,2.008416737,1.13477042,0.270088492,0.782355877,0.376997919,0.736950041,0.673675648,0.48173268,1.304260917,0.362660332,0.808874765,1.360936569,0.853414765,0.720761021,0.643846163,1.571328351,0.792433369,1.706540706,0.986368491,97.38399348
233,51:07.8,0,0,3.66443634,0.691788616,1.024029858,0.881489749,1.156676415,1.839461046,1.241347186,1.756816363,1.431552139,0.826493788,1.416414049,0.953775905,0.736689742,0.740474932,0.47206367,3.062146825,1.318794173,1.539919828,0.906445658,0.383812557,0.974691418,0.397618389,0.702344413,0.60069281,0.538089688,1.226015889,0.558315538,0.789641921,0.990448415,1.029254952,0.830720051,0.643853874,1.486831084,0.725070246,1.185997755,1.215489073,94.8135509
234,51:08.0,0.038855172,0.01561323,3.802276611,0.880437547,0.910417815,0.922873155,1.251142112,1.67882372,1.379023732,1.850296688,2.152374521,1.772420088,1.569636503,1.51433098,1.295355038,1.444623331,1.153864489,0.984343408,0.760334379,0.836506208,0.527803847,0.379486048,0.409130255,0.251096573,1.007579662,1.061579458,0.593859774,1.637682734,0.578062246,0.931282068,1.11926595,0.768817287,0.669019273,0.423094231,1.353055482,0.618273472,0.724579958,0.962181099,93.55464368
235,51:08.3,0.020236748,0.003539682,4.054336548,2.835767402,1.738308277,4.293746567,2.582644949,1.892689053,1.731659071,1.677794161,1.720266971,1.1903615,1.296855204,1.335747457,1.815714785,1.439065069,1.840427471,0.191606698,0.399753956,0.128267303,0.289875118,0.407407707,0.485130674,0.346469868,0.466953285,0.36141506,0.201512329,0.607688296,0.46093167,0.706552634,0.993908482,0.719490947,0.436568716,0.476530168,1.174954965,0.672704495,1.027845976,0.969369217,93.86037514
236,51:08.5,0,0,-1,0.65838808,0.874044087,0.747693467,1.412304543,1.913376663,1.836538503,1.952447968,1.292778608,1.319817873,1.50754149,1.341788167,0.926714348,1.458072188,0.790044652,1.92250024,0.784671059,1.443213314,0.52770072,0.34668117,0.412558897,0.39618349,0.776222299,0.685767505,0.496405792,1.015791539,0.36236008,0.933392913,0.814789432,0.646869146,0.411084607,0.400511084,1.069175478,0.459908617,1.298824678,1.230554065,94.16610661
237,51:08.8,0,0,-1,0.608037432,0.697816908,0.777958998,1.480136335,2.205434705,2.245309674,1.525464078,1.90658473,1.283114402,1.414759048,0.860244197,0.735150547,0.713087111,0.547551607,3.003617502,2.009629167,1.748505517,0.785374016,0.320496518,0.347103004,0.343828525,0.716207796,0.494133179,0.493541772,0.833824554,0.32203112,1.368068047,0.845117596,0.795324393,0.483551704,0.522281136,1.434678692,0.502006761,2.393969249,0.676181087,95.39298064
238,51:09.0,0,0,4.256790161,0.723105914,0.887220199,0.790630854,1.45198575,1.669989616,2.145388694,1.753163137,2.032627512,1.204604655,1.947961638,0.718902889,1.099598423,0.653061716,0.763644888,1.810950742,1.725894934,1.150249711,0.958004209,0.307401392,0.38694521,0.280620808,0.678561184,0.461379194,0.444997765,0.806026983,0.656435844,0.514807906,0.836543095,0.642538977,0.626808969,0.31996132,1.627952414,0.562763158,0.916867667,0.721527436,96.95026451
239,51:09.3,0.425309554,0.514701113,4.225273132,0.73821523,1.165537192,0.7818901,1.929607801,2.019477397,1.474938397,1.590227793,2.265187616,0.996569906,2.162314021,0.782626023,0.941653339,0.752301376,0.571888724,2.368674941,1.140465121,1.358198464,0.662180929,0.229003563,0.680328007,0.277610879,0.617915879,0.409501085,0.457747735,0.787567896,0.559069338,0.694156852,1.145186125,0.797628794,0.634438219,0.38008512,1.941792261,0.522138727,1.027362545,0.803954071,98.50754838
240,51:09.5,0.070180155,0.088640591,4.370544434,1.788874279,1.034764349,2.315630781,1.201818438,2.071221292,1.160591827,1.51177714,1.887703813,1.56756283,1.651080773,1.375367111,1.497581949,1.130404157,1.774944235,0.314945543,0.85491866,0.288363368,0.604982068,0.292418724,0.549661774,0.350411518,0.578088976,0.773129097,0.364012413,1.444643872,0.504660642,1.123468704,1.113259308,0.58262591,0.707717166,0.562852903,1.262353614,0.633078577,0.831793515,0.891559343,98.76815133
241,51:09.8,0.411835213,0.540252701,4.36164856,1.313873499,1.147159833,1.66808462,1.461539415,1.852415529,1.634362495,2.153402078,2.874926048,1.450368646,1.762694474,1.118889985,0.867141043,0.707250152,0.801721134,0.949342918,1.232545665,0.691340787,0.611507914,0.306255956,0.421864722,0.161528141,0.508546818,0.468924546,0.333919734,1.116736259,0.552325579,1.516599447,1.227293036,0.833414711,0.760595672,0.642348067,1.458726131,0.580438922,1.708995339,0.919277689,98.86520894
242,51:10.0,0.081056196,0.045470196,4.156929016,2.62296001,1.052877424,2.611111753,1.616772296,1.357859866,1.137937131,2.683865031,3.150884375,2.251342959,1.070248893,1.207697274,2.019985626,0.835324672,1.70299858,0.223869044,1.137016789,0.18959473,0.512145139,0.688113789,0.390337317,0.118251555,0.531142195,0.488917108,0.343244574,1.124287459,0.626906923,2.081602068,1.144885304,0.818065707,0.616251145,0.443691247,1.505109647,0.795377371,1.052141912,0.975192126,98.86296465
243,51:10.3,0,0,-1,1.667226198,1.088804162,2.301590485,1.334063584,1.440155538,1.296303681,3.532577742,3.516360042,2.908161189,1.315346692,1.306243085,1.751782727,0.802749717,0.97475161,0.615334851,1.14411602,0.248022858,0.573851427,0.527898423,0.265261836,0.080503532,0.503200965,0.474799428,0.405926259,1.148236731,0.539000912,2.942510647,1.030392061,0.860680632,0.643991001,0.533328706,1.172691995,0.590144905,1.311614843,1.035144302,95.85683791
244,51:10.5,0,0,4.057640076,2.294540157,0.95438627,2.666184403,1.256856409,1.447740545,1.505738449,3.24033032,2.783832147,1.900039694,1.392034806,1.739261677,1.357433928,0.930784485,1.096513507,0.397457184,1.125710409,0.27630651,0.457456084,0.496202752,0.349532679,0.110858161,0.493961819,0.593175459,0.305521406,0.138975352,0.662516992,1.768231306,1.084469185,1.033653688,0.608216534,0.600085493,0.100428857,0.689029259,1.401283285,1.262302537,92.85071117
245,51:10.8,0,0,3.681213379,1.028668433,1.32478175,1.568574878,1.717876988,2.508434971,1.529692841,2.324810389,1.751836087,1.75154131,1.313721755,1.362374229,1.287767727,0.99047826,0.799158538,1.216442663,0.762097814,0.495059282,0.42727897,0.303454625,0.373229,0.245538158,0.690452959,1.013873741,0.390619526,0.112900538,0.34959363,1.186560129,0.997263055,0.88874376,1.356073609,0.475796964,0.142361205,0.667517976,1.036271611,1.323438607,91.63125802
246,51:11.0,0,0,3.592956543,0.93664675,1.126918186,1.198883786,1.754604862,2.765157379,1.401526632,2.6208598,1.893671896,1.775164342,1.577735621,1.31898336,1.175894953,1.069215634,0.660799304,1.615677186,0.829931621,0.709339896,0.432097103,0.22921652,0.401938937,0.201489063,0.687976028,0.60945422,0.515280584,0.107097478,0.382233073,1.645400115,0.972298358,0.975168266,0.642344745,0.525354357,0.142468633,0.669906028,1.299075261,1.345670117,93.04759065
247,51:11.3,0.007372436,0.008077623,3.500732422,0.961583993,1.408646391,1.252469166,1.697738801,2.711895882,2.169346009,2.790575081,2.201222286,2.108582894,1.945454781,1.297450801,1.339129142,0.896426124,0.652485503,1.593829673,0.791924007,0.59622543,0.453981575,0.18954217,0.21861527,0.162795497,0.595179532,0.544614902,0.536641332,0.128179964,0.506235571,1.445568909,1.047497246,0.877130769,0.855809304,0.501913296,0.167725896,0.70567467,1.487225924,1.327952988,94.46392327
248,51:11.5,0.467436563,0.545877711,3.688140869,0.881830328,1.249679246,1.092523796,1.59900205,4.505936061,1.954867714,2.510268339,2.511012455,2.080060321,1.800287595,1.104046335,1.164527604,0.735703984,0.619005156,1.83197989,1.087672968,0.785994139,0.566452736,0.123274454,0.245927274,0.158646679,0.576849511,0.565186246,0.606057286,0.149041193,0.29080693,1.723036914,1.399127792,0.821775697,0.960034928,0.56858421,0.215857945,0.727860058,1.619332478,1.398713173,95.52890295
249,51:11.8,0.080962634,0.063347867,3.670875549,1.276928009,1.45608092,1.218804163,1.429965171,3.327173715,1.794822024,2.505591725,2.191134316,2.677248221,1.265629578,1.428315461,1.3618826,1.26182994,1.274694869,0.614366249,0.544269078,0.602457479,0.489610139,0.237475006,0.208108573,0.182146442,0.656155078,0.712775922,0.368747026,0.118620703,0.359692964,1.973259032,1.082452131,0.657304597,0.822503403,0.330006721,0.11875771,0.945585497,1.322869035,1.237798652,96.41608956
250,51:12.0,0.31665412,0.328408671,3.542205811,1.330479801,1.250160168,1.231811306,1.218669999,2.652904332,1.432266854,1.964911393,3.929695777,2.037911498,1.193529895,1.458872671,1.567837328,1.149401887,1.694197851,0.443636825,0.695924998,0.517791377,0.56246628,0.315823985,0.342602667,0.129508448,1.146201636,0.603341103,0.775783177,0.175894485,0.323581755,1.764414073,2.195834543,0.90012989,0.656230882,0.609513801,0.146933544,0.719237485,1.240049823,1.097952757,97.30327618
251,51:12.3,0.434241257,0.538955889,3.779815674,1.238066237,1.347312321,1.059275566,1.339303892,1.919141315,0.826324372,2.423142802,4.032828388,1.593854509,2.23189658,1.44063639,1.327221301,1.311805987,1.935687912,0.417273478,0.565798915,0.711291636,0.518282433,0.233463493,0.759277906,0.10233195,1.094285015,0.727671134,0.661860538,0.193122664,0.561084085,1.473975379,1.982261209,0.699904836,0.747366832,0.528240992,0.179538666,0.482459473,0.764173751,1.191050429,98.56535961
252,51:12.5,0,0,4.056663513,0.659215838,0.626723055,1.147620605,1.031318306,1.961699893,1.053710768,2.565937756,5.156376548,1.237732203,2.318505503,1.352533786,1.129918196,1.800827698,1.039352491,1.459518168,0.88603763,0.771178051,0.716900942,0.21986662,0.766746657,0.075580413,0.762532325,0.819591899,0.557122107,0.320288555,0.482141342,0.817855542,2.024326838,0.483640911,0.285233917,0.565850529,0.244222698,0.407942365,0.696259812,1.007354024,99.89256598
253,51:12.8,0,0,4.156105042,0.639625977,0.898449933,1.077957103,1.019414027,1.487187167,0.791807993,1.961953739,4.255249757,1.586632836,2.403407586,1.510601059,0.996688603,0.862796157,0.563870152,2.772648403,1.290024378,0.930762825,0.649381049,0.279773736,0.795982795,0.119780517,0.710834249,0.748199412,0.546262473,0.467086423,1.120787462,1.730223644,2.08940312,0.806334667,0.779117647,0.590803899,0.315208604,0.693523953,0.863466884,0.963354092,101.2197723
254,51:13.0,0.07159625,0.055928215,4.193984985,0.701400288,1.271366653,1.33941409,1.614377211,1.342807724,1.114403121,2.175514101,3.83389716,1.779979923,2.771198499,1.221173804,1.076226363,0.960954498,0.542927749,2.625983672,0.818514467,0.693715679,0.507244681,0.268731474,0.504130039,0.119894052,0.680390531,0.749521575,0.500141465,0.38628722,0.972352033,1.970436717,1.839475177,0.878986413,0.991635648,0.622449466,0.5106671,0.47116142,1.233643593,1.043795391,98.01740327
255,51:13.3,0.133637375,0.010187785,4.408584595,0.530187513,0.879421244,0.976476883,1.059486842,1.524490893,1.561096916,1.770189826,3.196894307,1.921780632,4.395520245,1.715462672,0.812969772,0.887443689,0.41621818,4.531577998,1.281333681,1.259689868,0.550203261,0.149233004,0.333323798,0.176706238,0.678139629,0.766351166,0.475518508,0.760452202,1.377592141,1.721144842,1.839638629,0.86382859,0.759423392,0.571156329,0.469662858,0.477787965,1.398116861,1.018647873,94.46360162
