,JST,Like,Want_To_Watch,Pleasant,Happy ,Emotional,Quality,Interest,Light_Hearted,Exciting,Warm,Impression
0,16:50:09.555,2,2,2,3,3,2,2,3,3,2,2
1,16:50:09.805,2,2,2,3,3,2,2,3,3,2,2
2,16:50:10.057,2,2,2,3,3,2,2,3,3,2,2
3,16:50:10.305,2,2,2,3,3,2,2,3,3,2,2
4,16:50:10.555,2,2,2,3,3,2,2,3,3,2,2
5,16:50:10.804,2,2,2,3,3,2,2,3,3,2,2
6,16:50:11.054,2,2,2,3,3,2,2,3,3,2,2
7,16:50:11.304,2,2,2,3,3,2,2,3,3,2,2
8,16:50:11.554,2,2,2,3,3,2,2,3,3,2,2
9,16:50:11.824,2,2,2,3,3,2,2,3,3,2,2
10,16:50:12.053,2,2,2,3,3,2,2,3,3,2,2
11,16:50:12.305,2,2,2,3,3,2,2,3,3,2,2
12,16:50:12.553,2,2,2,3,3,2,2,3,3,2,2
13,16:50:12.803,2,2,2,3,3,2,2,3,3,2,2
14,16:50:13.052,2,2,2,3,3,2,2,3,3,2,2
15,16:50:13.303,2,2,2,3,3,2,2,3,3,2,2
16,16:50:13.548,2,2,2,3,3,2,2,3,3,2,2
17,16:50:13.803,2,2,2,3,3,2,2,3,3,2,2
18,16:50:14.053,2,2,2,3,3,2,2,3,3,2,2
19,16:50:14.303,2,2,2,3,3,2,2,3,3,2,2
20,16:50:14.553,2,2,2,3,3,2,2,3,3,2,2
21,16:50:14.802,2,2,2,3,3,2,2,3,3,2,2
22,16:50:15.051,2,2,2,3,3,2,2,3,3,2,2
23,16:50:15.300,2,2,2,3,3,2,2,3,3,2,2
24,16:50:15.543,2,2,2,3,3,2,2,3,3,2,2
25,16:50:15.802,2,2,2,3,3,2,2,3,3,2,2
26,16:50:16.052,2,2,2,3,3,2,2,3,3,2,2
27,16:50:16.302,2,2,2,3,3,2,2,3,3,2,2
28,16:50:16.551,2,2,2,3,3,2,2,3,3,2,2
29,16:50:16.801,2,2,2,3,3,2,2,3,3,2,2
30,16:50:17.051,2,2,2,3,3,2,2,3,3,2,2
31,16:50:17.301,2,2,2,3,3,2,2,3,3,2,2
32,16:50:17.550,2,2,2,3,3,2,2,3,3,2,2
33,16:50:17.800,2,2,2,3,3,2,2,3,3,2,2
34,16:50:18.051,2,2,2,3,3,2,2,3,3,2,2
35,16:50:18.300,2,2,2,3,3,2,2,3,3,2,2
36,16:50:18.550,2,2,2,3,3,2,2,3,3,2,2
37,16:50:18.802,2,2,2,3,3,2,2,3,3,2,2
38,16:50:19.053,2,2,2,3,3,2,2,3,3,2,2
39,16:50:19.300,2,2,2,3,3,2,2,3,3,2,2
40,16:50:19.549,2,2,2,3,3,2,2,3,3,2,2
41,16:50:19.799,2,2,2,3,3,2,2,3,3,2,2
42,16:50:20.048,2,2,2,3,3,2,2,3,3,2,2
43,16:50:20.298,2,2,2,3,3,2,2,3,3,2,2
44,16:50:20.548,2,2,2,3,3,2,2,3,3,2,2
45,16:50:20.798,2,2,2,3,3,2,2,3,3,2,2
46,16:50:21.050,2,2,2,3,3,2,2,3,3,2,2
47,16:50:21.329,2,2,2,3,3,2,2,3,3,2,2
48,16:50:21.548,2,2,2,3,3,2,2,3,3,2,2
49,16:50:21.798,2,2,2,3,3,2,2,3,3,2,2
50,16:50:22.047,2,2,2,3,3,2,2,3,3,2,2
51,16:50:22.289,2,2,2,3,3,2,2,3,3,2,2
52,16:50:22.547,2,2,2,3,3,2,2,3,3,2,2
53,16:50:22.798,2,2,2,3,3,2,2,3,3,2,2
54,16:50:23.047,2,2,2,3,3,2,2,3,3,2,2
55,16:50:23.298,2,2,2,3,3,2,2,3,3,2,2
56,16:50:23.548,2,2,2,3,3,2,2,3,3,2,2
57,16:50:23.798,2,2,2,3,3,2,2,3,3,2,2
58,16:50:24.047,2,2,2,3,3,2,2,3,3,2,2
59,16:50:24.320,2,2,2,3,3,2,2,3,3,2,2
60,16:50:24.550,2,2,2,3,3,2,2,3,3,2,2
61,16:50:24.797,2,2,2,3,3,2,2,3,3,2,2
62,16:50:25.047,2,2,2,3,3,2,2,3,3,2,2
63,16:50:25.297,2,2,2,3,3,2,2,3,3,2,2
64,16:50:25.546,2,2,2,3,3,2,2,3,3,2,2
65,16:50:25.795,2,2,2,3,3,2,2,3,3,2,2
66,16:50:26.045,2,2,2,3,3,2,2,3,3,2,2
67,16:50:26.295,2,2,2,3,3,2,2,3,3,2,2
68,16:50:26.544,2,2,2,3,3,2,2,3,3,2,2
69,16:50:26.793,2,2,2,3,3,2,2,3,3,2,2
70,16:50:27.043,2,2,2,3,3,2,2,3,3,2,2
71,16:50:27.293,2,2,2,3,3,2,2,3,3,2,2
72,16:50:27.544,2,2,2,3,3,2,2,3,3,2,2
73,16:50:27.793,2,2,2,3,3,2,2,3,3,2,2
74,16:50:28.042,2,2,2,3,3,2,2,3,3,2,2
75,16:50:28.293,2,2,2,3,3,2,2,3,3,2,2
76,16:50:28.543,2,2,2,3,3,2,2,3,3,2,2
77,16:50:28.792,2,2,2,3,3,2,2,3,3,2,2
78,16:50:29.042,2,2,2,3,3,2,2,3,3,2,2
79,16:50:29.295,2,2,2,3,3,2,2,3,3,2,2
80,16:50:29.542,2,2,2,3,3,2,2,3,3,2,2
81,16:50:29.792,2,2,2,3,3,2,2,3,3,2,2
82,16:50:30.042,2,2,2,3,3,2,2,3,3,2,2
83,16:50:30.291,2,2,2,3,3,2,2,3,3,2,2
84,16:50:30.540,2,2,2,3,3,2,2,3,3,2,2
85,16:50:30.805,2,2,2,3,3,2,2,3,3,2,2
86,16:50:31.039,2,2,2,3,3,2,2,3,3,2,2
87,16:50:31.290,2,2,2,3,3,2,2,3,3,2,2
88,16:50:31.541,2,2,2,3,3,2,2,3,3,2,2
89,16:50:31.797,2,2,2,3,3,2,2,3,3,2,2
90,16:50:32.039,2,2,2,3,3,2,2,3,3,2,2
91,16:50:32.290,2,2,2,3,3,2,2,3,3,2,2
92,16:50:32.539,2,2,2,3,3,2,2,3,3,2,2
93,16:50:32.789,2,2,2,3,3,2,2,3,3,2,2
94,16:50:33.040,2,2,2,3,3,2,2,3,3,2,2
95,16:50:33.290,2,2,2,3,3,2,2,3,3,2,2
96,16:50:33.555,2,2,2,3,3,2,2,3,3,2,2
97,16:50:33.790,2,2,2,3,3,2,2,3,3,2,2
98,16:50:34.039,2,2,2,3,3,2,2,3,3,2,2
99,16:50:34.290,2,2,2,3,3,2,2,3,3,2,2
100,16:50:34.539,2,2,2,3,3,2,2,3,3,2,2
101,16:50:34.787,2,2,2,3,3,2,2,3,3,2,2
102,16:50:35.071,2,2,2,3,3,2,2,3,3,2,2
103,16:50:35.287,2,2,2,3,3,2,2,3,3,2,2
104,16:50:35.541,2,2,2,3,3,2,2,3,3,2,2
105,16:50:35.788,2,2,2,3,3,2,2,3,3,2,2
106,16:50:36.039,2,2,2,3,3,2,2,3,3,2,2
107,16:50:36.287,2,2,2,3,3,2,2,3,3,2,2
108,16:50:36.537,2,2,2,3,3,2,2,3,3,2,2
109,16:50:36.787,2,2,2,3,3,2,2,3,3,2,2
110,16:50:37.037,2,2,2,3,3,2,2,3,3,2,2
111,16:50:37.286,2,2,2,3,3,2,2,3,3,2,2
112,16:50:37.552,2,2,2,3,3,2,2,3,3,2,2
113,16:50:37.787,2,2,2,3,3,2,2,3,3,2,2
114,16:50:38.036,2,2,2,3,3,2,2,3,3,2,2
115,16:50:38.286,2,2,2,3,3,2,2,3,3,2,2
116,16:50:38.536,2,2,2,3,3,2,2,3,3,2,2
117,16:50:38.786,2,2,2,3,3,2,2,3,3,2,2
118,16:50:39.036,2,2,2,3,3,2,2,3,3,2,2
119,16:50:39.292,2,2,2,3,3,2,2,3,3,2,2
120,16:50:39.551,2,2,2,3,3,2,2,3,3,2,2
121,16:50:39.785,2,2,2,3,3,2,2,3,3,2,2
122,16:50:40.036,2,2,2,3,3,2,2,3,3,2,2
123,16:50:40.285,2,2,2,3,3,2,2,3,3,2,2
124,16:50:40.535,2,2,2,3,3,2,2,3,3,2,2
125,16:50:40.785,2,2,2,3,3,2,2,3,3,2,2
126,16:50:41.034,2,2,2,3,3,2,2,3,3,2,2
127,16:50:41.284,2,2,2,3,3,2,2,3,3,2,2
128,16:50:41.536,2,2,2,3,3,2,2,3,3,2,2
129,16:50:41.785,2,2,2,3,3,2,2,3,3,2,2
130,16:50:42.034,2,2,2,3,3,2,2,3,3,2,2
131,16:50:42.283,2,2,2,3,3,2,2,3,3,2,2
132,16:50:42.533,2,2,2,3,3,2,2,3,3,2,2
133,16:50:42.786,2,2,2,3,3,2,2,3,3,2,2
134,16:50:43.032,2,2,2,3,3,2,2,3,3,2,2
135,16:50:43.283,2,2,2,3,3,2,2,3,3,2,2
136,16:50:43.532,2,2,2,3,3,2,2,3,3,2,2
137,16:50:43.783,2,2,2,3,3,2,2,3,3,2,2
138,16:50:44.032,2,2,2,3,3,2,2,3,3,2,2
139,16:50:44.284,2,2,2,3,3,2,2,3,3,2,2
140,16:50:44.533,2,2,2,3,3,2,2,3,3,2,2
141,16:50:44.796,2,2,2,3,3,2,2,3,3,2,2
142,16:50:45.031,2,2,2,3,3,2,2,3,3,2,2
143,16:50:45.280,2,2,2,3,3,2,2,3,3,2,2
144,16:50:45.531,2,2,2,3,3,2,2,3,3,2,2
145,16:50:45.781,2,2,2,3,3,2,2,3,3,2,2
146,16:50:46.031,2,2,2,3,3,2,2,3,3,2,2
147,16:50:46.282,2,2,2,3,3,2,2,3,3,2,2
148,16:50:46.532,2,2,2,3,3,2,2,3,3,2,2
149,16:50:46.779,2,2,2,3,3,2,2,3,3,2,2
150,16:50:47.024,2,2,2,3,3,2,2,3,3,2,2
151,16:50:47.282,2,2,2,3,3,2,2,3,3,2,2
152,16:50:47.548,2,2,2,3,3,2,2,3,3,2,2
153,16:50:47.780,2,2,2,3,3,2,2,3,3,2,2
154,16:50:48.031,2,2,2,3,3,2,2,3,3,2,2
155,16:50:48.279,2,2,2,3,3,2,2,3,3,2,2
156,16:50:48.530,2,2,2,3,3,2,2,3,3,2,2
157,16:50:48.778,2,2,2,3,3,2,2,3,3,2,2
158,16:50:49.028,2,2,2,3,3,2,2,3,3,2,2
159,16:50:49.278,2,2,2,3,3,2,2,3,3,2,2
160,16:50:49.546,2,2,2,3,3,2,2,3,3,2,2
161,16:50:49.780,2,2,2,3,3,2,2,3,3,2,2
162,16:50:50.029,2,2,2,3,3,2,2,3,3,2,2
163,16:50:50.278,2,2,2,3,3,2,2,3,3,2,2
164,16:50:50.528,2,2,2,3,3,2,2,3,3,2,2
165,16:50:50.779,2,2,2,3,3,2,2,3,3,2,2
166,16:50:51.019,2,2,2,3,3,2,2,3,3,2,2
167,16:50:51.277,2,2,2,3,3,2,2,3,3,2,2
168,16:50:51.527,2,2,2,3,3,2,2,3,3,2,2
169,16:50:51.776,2,2,2,3,3,2,2,3,3,2,2
170,16:50:52.026,2,2,2,3,3,2,2,3,3,2,2
171,16:50:52.277,2,2,2,3,3,2,2,3,3,2,2
172,16:50:52.528,2,2,2,3,3,2,2,3,3,2,2
173,16:50:52.775,2,2,2,3,3,2,2,3,3,2,2
174,16:50:53.022,2,2,2,3,3,2,2,3,3,2,2
175,16:50:53.278,2,2,2,3,3,2,2,3,3,2,2
176,16:50:53.527,2,2,2,3,3,2,2,3,3,2,2
177,16:50:53.776,2,2,2,3,3,2,2,3,3,2,2
178,16:50:54.025,2,2,2,3,3,2,2,3,3,2,2
179,16:50:54.289,2,2,2,3,3,2,2,3,3,2,2
180,16:50:54.525,2,2,2,3,3,2,2,3,3,2,2
181,16:50:54.776,2,2,2,3,3,2,2,3,3,2,2
182,16:50:55.024,2,2,2,3,3,2,2,3,3,2,2
183,16:50:55.273,2,2,2,3,3,2,2,3,3,2,2
184,16:50:55.525,2,2,2,3,3,2,2,3,3,2,2
185,16:50:55.773,2,2,2,3,3,2,2,3,3,2,2
186,16:50:56.047,2,2,2,3,3,2,2,3,3,2,2
187,16:50:56.275,2,2,2,3,3,2,2,3,3,2,2
188,16:50:56.524,2,2,2,3,3,2,2,3,3,2,2
189,16:50:56.774,2,2,2,3,3,2,2,3,3,2,2
190,16:50:57.022,2,2,2,3,3,2,2,3,3,2,2
191,16:50:57.272,2,2,2,3,3,2,2,3,3,2,2
192,16:50:57.539,2,2,2,3,3,2,2,3,3,2,2
193,16:50:57.773,2,2,2,3,3,2,2,3,3,2,2
194,16:50:58.023,2,2,2,3,3,2,2,3,3,2,2
195,16:50:58.269,2,2,2,3,3,2,2,3,3,2,2
196,16:50:58.522,2,2,2,3,3,2,2,3,3,2,2
197,16:50:58.771,2,2,2,3,3,2,2,3,3,2,2
198,16:50:59.021,2,2,2,3,3,2,2,3,3,2,2
199,16:50:59.271,2,2,2,3,3,2,2,3,3,2,2
200,16:50:59.521,2,2,2,3,3,2,2,3,3,2,2
201,16:50:59.772,2,2,2,3,3,2,2,3,3,2,2
202,16:51:00.021,2,2,2,3,3,2,2,3,3,2,2
203,16:51:00.263,2,2,2,3,3,2,2,3,3,2,2
204,16:51:00.522,2,2,2,3,3,2,2,3,3,2,2
205,16:51:00.774,2,2,2,3,3,2,2,3,3,2,2
206,16:51:01.020,2,2,2,3,3,2,2,3,3,2,2
207,16:51:01.270,2,2,2,3,3,2,2,3,3,2,2
208,16:51:01.519,2,2,2,3,3,2,2,3,3,2,2
209,16:51:01.769,2,2,2,3,3,2,2,3,3,2,2
210,16:51:02.020,2,2,2,3,3,2,2,3,3,2,2
211,16:51:02.269,2,2,2,3,3,2,2,3,3,2,2
212,16:51:02.520,2,2,2,3,3,2,2,3,3,2,2
213,16:51:02.770,2,2,2,3,3,2,2,3,3,2,2
214,16:51:03.020,2,2,2,3,3,2,2,3,3,2,2
215,16:51:03.270,2,2,2,3,3,2,2,3,3,2,2
216,16:51:03.521,2,2,2,3,3,2,2,3,3,2,2
217,16:51:03.770,2,2,2,3,3,2,2,3,3,2,2
218,16:51:04.019,2,2,2,3,3,2,2,3,3,2,2
219,16:51:04.270,2,2,2,3,3,2,2,3,3,2,2
220,16:51:04.534,2,2,2,3,3,2,2,3,3,2,2
221,16:51:04.770,2,2,2,3,3,2,2,3,3,2,2
222,16:51:05.020,2,2,2,3,3,2,2,3,3,2,2
223,16:51:05.268,2,2,2,3,3,2,2,3,3,2,2
224,16:51:05.518,2,2,2,3,3,2,2,3,3,2,2
225,16:51:05.768,2,2,2,3,3,2,2,3,3,2,2
226,16:51:06.018,2,2,2,3,3,2,2,3,3,2,2
227,16:51:06.265,2,2,2,3,3,2,2,3,3,2,2
228,16:51:06.516,2,2,2,3,3,2,2,3,3,2,2
229,16:51:06.766,2,2,2,3,3,2,2,3,3,2,2
230,16:51:07.016,2,2,2,3,3,2,2,3,3,2,2
231,16:51:07.266,2,2,2,3,3,2,2,3,3,2,2
232,16:51:07.516,2,2,2,3,3,2,2,3,3,2,2
233,16:51:07.765,2,2,2,3,3,2,2,3,3,2,2
234,16:51:08.017,2,2,2,3,3,2,2,3,3,2,2
235,16:51:08.266,2,2,2,3,3,2,2,3,3,2,2
236,16:51:08.518,2,2,2,3,3,2,2,3,3,2,2
237,16:51:08.782,2,2,2,3,3,2,2,3,3,2,2
238,16:51:09.015,2,2,2,3,3,2,2,3,3,2,2
239,16:51:09.267,2,2,2,3,3,2,2,3,3,2,2
240,16:51:09.518,2,2,2,3,3,2,2,3,3,2,2
241,16:51:09.766,2,2,2,3,3,2,2,3,3,2,2
242,16:51:10.015,2,2,2,3,3,2,2,3,3,2,2
243,16:51:10.282,2,2,2,3,3,2,2,3,3,2,2
244,16:51:10.517,2,2,2,3,3,2,2,3,3,2,2
245,16:51:10.765,2,2,2,3,3,2,2,3,3,2,2
246,16:51:11.012,2,2,2,3,3,2,2,3,3,2,2
247,16:51:11.262,2,2,2,3,3,2,2,3,3,2,2
248,16:51:11.513,2,2,2,3,3,2,2,3,3,2,2
249,16:51:11.764,2,2,2,3,3,2,2,3,3,2,2
250,16:51:12.013,2,2,2,3,3,2,2,3,3,2,2
251,16:51:12.261,2,2,2,3,3,2,2,3,3,2,2
252,16:51:12.513,2,2,2,3,3,2,2,3,3,2,2
253,16:51:12.763,2,2,2,3,3,2,2,3,3,2,2
254,16:51:13.013,2,2,2,3,3,2,2,3,3,2,2
255,16:51:13.264,2,2,2,3,3,2,2,3,3,2,2
256,16:51:13.514,2,2,2,3,3,2,2,3,3,2,2
257,16:51:13.761,2,2,2,3,3,2,2,3,3,2,2
258,16:51:14.012,2,2,2,3,3,2,2,3,3,2,2
259,16:51:14.258,2,2,2,3,3,2,2,3,3,2,2
260,16:51:14.511,2,2,2,3,3,2,2,3,3,2,2
261,16:51:14.763,2,2,2,3,3,2,2,3,3,2,2
262,16:51:15.018,2,2,2,3,3,2,2,3,3,2,2
263,16:51:15.263,2,2,2,3,3,2,2,3,3,2,2
264,16:51:15.514,2,2,2,3,3,2,2,3,3,2,2
265,16:51:15.764,2,2,2,3,3,2,2,3,3,2,2
266,16:51:16.012,2,2,2,3,3,2,2,3,3,2,2
267,16:51:16.261,2,2,2,3,3,2,2,3,3,2,2
268,16:51:16.509,2,2,2,3,3,2,2,3,3,2,2
269,16:51:16.751,2,2,2,3,3,2,2,3,3,2,2
270,16:51:17.009,2,2,2,3,3,2,2,3,3,2,2
271,16:51:17.260,2,2,2,3,3,2,2,3,3,2,2
272,16:51:17.507,2,2,2,3,3,2,2,3,3,2,2
273,16:51:17.757,2,2,2,3,3,2,2,3,3,2,2
274,16:51:18.006,2,2,2,3,3,2,2,3,3,2,2
275,16:51:18.256,2,2,2,3,3,2,2,3,3,2,2
276,16:51:18.506,2,2,2,3,3,2,2,3,3,2,2
277,16:51:18.758,2,2,2,3,3,2,2,3,3,2,2
278,16:51:19.010,2,2,2,3,3,2,2,3,3,2,2
279,16:51:19.259,2,2,2,3,3,2,2,3,3,2,2
280,16:51:19.506,2,2,2,3,3,2,2,3,3,2,2
281,16:51:19.757,2,2,2,3,3,2,2,3,3,2,2
282,16:51:20.001,2,2,2,3,3,2,2,3,3,2,2
283,16:51:20.257,2,2,2,3,3,2,2,3,3,2,2
284,16:51:20.504,2,2,2,3,3,2,2,3,3,2,2
285,16:51:20.757,2,2,2,3,3,2,2,3,3,2,2
286,16:51:21.006,2,2,2,3,3,2,2,3,3,2,2
287,16:51:21.257,2,2,2,3,3,2,2,3,3,2,2
288,16:51:21.532,2,2,2,3,3,2,2,3,3,2,2
289,16:51:21.757,2,2,2,3,3,2,2,3,3,2,2
290,16:51:22.007,2,2,2,3,3,2,2,3,3,2,2
291,16:51:22.258,2,2,2,3,3,2,2,3,3,2,2
292,16:51:22.508,2,2,2,3,3,2,2,3,3,2,2
293,16:51:22.756,2,2,2,3,3,2,2,3,3,2,2
294,16:51:23.006,2,2,2,3,3,2,2,3,3,2,2
295,16:51:23.254,2,2,2,3,3,2,2,3,3,2,2
296,16:51:23.503,2,2,2,3,3,2,2,3,3,2,2
297,16:51:23.757,2,2,2,3,3,2,2,3,3,2,2
298,16:51:24.005,2,2,2,3,3,2,2,3,3,2,2
299,16:51:24.254,2,2,2,3,3,2,2,3,3,2,2
300,16:51:24.503,2,2,2,3,3,2,2,3,3,2,2
301,16:51:24.753,2,2,2,3,3,2,2,3,3,2,2
302,16:51:25.003,2,2,2,3,3,2,2,3,3,2,2
303,16:51:25.253,2,2,2,3,3,2,2,3,3,2,2
304,16:51:25.512,2,2,2,3,3,2,2,3,3,2,2
305,16:51:25.753,2,2,2,3,3,2,2,3,3,2,2
306,16:51:26.005,2,2,2,3,3,2,2,3,3,2,2
307,16:51:26.252,2,2,2,3,3,2,2,3,3,2,2
308,16:51:26.502,2,2,2,3,3,2,2,3,3,2,2
309,16:51:26.753,2,2,2,3,3,2,2,3,3,2,2
310,16:51:27.003,2,2,2,3,3,2,2,3,3,2,2
311,16:51:27.257,2,2,2,3,3,2,2,3,3,2,2
312,16:51:27.501,2,2,2,3,3,2,2,3,3,2,2
313,16:51:27.760,2,2,2,3,3,2,2,3,3,2,2
314,16:51:28.002,2,2,2,3,3,2,2,3,3,2,2
315,16:51:28.253,2,2,2,3,3,2,2,3,3,2,2
316,16:51:28.533,2,2,2,3,3,2,2,3,3,2,2
317,16:51:28.750,2,2,2,3,3,2,2,3,3,2,2
318,16:51:29.000,2,2,2,3,3,2,2,3,3,2,2
319,16:51:29.251,2,2,2,3,3,2,2,3,3,2,2
320,16:51:29.501,2,2,2,3,3,2,2,3,3,2,2
321,16:51:29.751,2,2,2,3,3,2,2,3,3,2,2
322,16:51:30.026,2,2,2,3,3,2,2,3,3,2,2
323,16:51:30.253,2,2,2,3,3,2,2,3,3,2,2
324,16:51:30.499,2,2,2,3,3,2,2,3,3,2,2
325,16:51:30.750,2,2,2,3,3,2,2,3,3,2,2
326,16:51:30.999,2,2,2,3,3,2,2,3,3,2,2
327,16:51:31.251,2,2,2,3,3,2,2,3,3,2,2
328,16:51:31.501,2,2,2,3,3,2,2,3,3,2,2
329,16:51:31.747,2,2,2,3,3,2,2,3,3,2,2
330,16:51:32.000,2,2,2,3,3,2,2,3,3,2,2
331,16:51:32.249,2,2,2,3,3,2,2,3,3,2,2
332,16:51:32.499,2,2,2,3,3,2,2,3,3,2,2
333,16:51:32.749,2,2,2,3,3,2,2,3,3,2,2
334,16:51:32.998,2,2,2,3,3,2,2,3,3,2,2
335,16:51:33.248,2,2,2,3,3,2,2,3,3,2,2
336,16:51:33.496,2,2,2,3,3,2,2,3,3,2,2
337,16:51:33.746,2,2,2,3,3,2,2,3,3,2,2
338,16:51:33.995,2,2,2,3,3,2,2,3,3,2,2
339,16:51:34.248,2,2,2,3,3,2,2,3,3,2,2
340,16:51:34.497,2,2,2,3,3,2,2,3,3,2,2
341,16:51:34.748,2,2,2,3,3,2,2,3,3,2,2
342,16:51:34.990,2,2,2,3,3,2,2,3,3,2,2
343,16:51:35.246,2,2,2,3,3,2,2,3,3,2,2
344,16:51:35.497,2,2,2,3,3,2,2,3,3,2,2
345,16:51:35.745,2,2,2,3,3,2,2,3,3,2,2
346,16:51:35.996,2,2,2,3,3,2,2,3,3,2,2
347,16:51:36.246,2,2,2,3,3,2,2,3,3,2,2
348,16:51:36.497,2,2,2,3,3,2,2,3,3,2,2
349,16:51:36.742,2,2,2,3,3,2,2,3,3,2,2
350,16:51:36.997,2,2,2,3,3,2,2,3,3,2,2
351,16:51:37.247,2,2,2,3,3,2,2,3,3,2,2
352,16:51:37.492,2,2,2,3,3,2,2,3,3,2,2
353,16:51:37.748,2,2,2,3,3,2,2,3,3,2,2
354,16:51:37.994,2,2,2,3,3,2,2,3,3,2,2
355,16:51:38.245,2,2,2,3,3,2,2,3,3,2,2
356,16:51:38.495,2,2,2,3,3,2,2,3,3,2,2
357,16:51:38.744,2,2,2,3,3,2,2,3,3,2,2
358,16:51:38.994,2,2,2,3,3,2,2,3,3,2,2
359,16:51:39.245,2,2,2,3,3,2,2,3,3,2,2
360,16:51:39.494,2,2,2,3,3,2,2,3,3,2,2
361,16:51:39.744,2,2,2,3,3,2,2,3,3,2,2
362,16:51:39.993,2,2,2,3,3,2,2,3,3,2,2
363,16:51:40.243,2,2,2,3,3,2,2,3,3,2,2
364,16:51:40.509,2,2,2,3,3,2,2,3,3,2,2
365,16:51:40.744,2,2,2,3,3,2,2,3,3,2,2
366,16:51:40.994,2,2,2,3,3,2,2,3,3,2,2
367,16:51:41.243,2,2,2,3,3,2,2,3,3,2,2
368,16:51:41.493,2,2,2,3,3,2,2,3,3,2,2
369,16:51:41.743,2,2,2,3,3,2,2,3,3,2,2
370,16:51:41.993,2,2,2,3,3,2,2,3,3,2,2
371,16:51:42.242,2,2,2,3,3,2,2,3,3,2,2
372,16:51:42.492,2,2,2,3,3,2,2,3,3,2,2
373,16:51:42.755,2,2,2,3,3,2,2,3,3,2,2
374,16:51:42.995,2,2,2,3,3,2,2,3,3,2,2
375,16:51:43.242,2,2,2,3,3,2,2,3,3,2,2
376,16:51:43.492,2,2,2,3,3,2,2,3,3,2,2
377,16:51:43.743,2,2,2,3,3,2,2,3,3,2,2
378,16:51:43.993,2,2,2,3,3,2,2,3,3,2,2
379,16:51:44.261,2,2,2,3,3,2,2,3,3,2,2
380,16:51:44.491,2,2,2,3,3,2,2,3,3,2,2
381,16:51:44.739,2,2,2,3,3,2,2,3,3,2,2
382,16:51:44.988,2,2,2,3,3,2,2,3,3,2,2
383,16:51:45.241,2,2,2,3,3,2,2,3,3,2,2
384,16:51:45.491,2,2,2,3,3,2,2,3,3,2,2
385,16:51:45.741,2,2,2,3,3,2,2,3,3,2,2
386,16:51:45.987,2,2,2,3,3,2,2,3,3,2,2
387,16:51:46.240,2,2,2,3,3,2,2,3,3,2,2
388,16:51:46.492,2,2,2,3,3,2,2,3,3,2,2
389,16:51:46.742,2,2,2,3,3,2,2,3,3,2,2
390,16:51:46.989,2,2,2,3,3,2,2,3,3,2,2
391,16:51:47.239,2,2,2,3,3,2,2,3,3,2,2
392,16:51:47.487,2,2,2,3,3,2,2,3,3,2,2
393,16:51:47.737,2,2,2,3,3,2,2,3,3,2,2
394,16:51:47.986,2,2,2,3,3,2,2,3,3,2,2
395,16:51:48.235,2,2,2,3,3,2,2,3,3,2,2
396,16:51:48.486,2,2,2,3,3,2,2,3,3,2,2
397,16:51:48.736,2,2,2,3,3,2,2,3,3,2,2
398,16:51:48.986,2,2,2,3,3,2,2,3,3,2,2
399,16:51:49.237,2,2,2,3,3,2,2,3,3,2,2
400,16:51:49.487,2,2,2,3,3,2,2,3,3,2,2
401,16:51:49.736,2,2,2,3,3,2,2,3,3,2,2
402,16:51:49.986,2,2,2,3,3,2,2,3,3,2,2
403,16:51:50.236,2,2,2,3,3,2,2,3,3,2,2
404,16:51:50.494,2,2,2,3,3,2,2,3,3,2,2
405,16:51:50.738,2,2,2,3,3,2,2,3,3,2,2
406,16:51:50.987,2,2,2,3,3,2,2,3,3,2,2
407,16:51:51.237,2,2,2,3,3,2,2,3,3,2,2
408,16:51:51.488,2,2,2,3,3,2,2,3,3,2,2
409,16:51:51.737,2,2,2,3,3,2,2,3,3,2,2
410,16:51:51.988,2,2,2,3,3,2,2,3,3,2,2
411,16:51:52.238,2,2,2,3,3,2,2,3,3,2,2
412,16:51:52.490,2,2,2,3,3,2,2,3,3,2,2
413,16:51:52.737,2,2,2,3,3,2,2,3,3,2,2
414,16:51:52.985,2,2,2,3,3,2,2,3,3,2,2
415,16:51:53.235,2,2,2,3,3,2,2,3,3,2,2
416,16:51:53.486,2,2,2,3,3,2,2,3,3,2,2
417,16:51:53.736,2,2,2,3,3,2,2,3,3,2,2
418,16:51:53.985,2,2,2,3,3,2,2,3,3,2,2
419,16:51:54.234,2,2,2,3,3,2,2,3,3,2,2
420,16:51:54.485,2,2,2,3,3,2,2,3,3,2,2
421,16:51:54.734,2,2,2,3,3,2,2,3,3,2,2
422,16:51:54.985,2,2,2,3,3,2,2,3,3,2,2
423,16:51:55.233,2,2,2,3,3,2,2,3,3,2,2
424,16:51:55.482,2,2,2,3,3,2,2,3,3,2,2
425,16:51:55.743,2,2,2,3,3,2,2,3,3,2,2
426,16:51:55.983,2,2,2,3,3,2,2,3,3,2,2
427,16:51:56.233,2,2,2,3,3,2,2,3,3,2,2
428,16:51:56.483,2,2,2,3,3,2,2,3,3,2,2
429,16:51:56.733,2,2,2,3,3,2,2,3,3,2,2
430,16:51:56.983,2,2,2,3,3,2,2,3,3,2,2
431,16:51:57.234,2,2,2,3,3,2,2,3,3,2,2
432,16:51:57.482,2,2,2,3,3,2,2,3,3,2,2
433,16:51:57.732,2,2,2,3,3,2,2,3,3,2,2
434,16:51:57.982,2,2,2,3,3,2,2,3,3,2,2
435,16:51:58.230,2,2,2,3,3,2,2,3,3,2,2
436,16:51:58.479,2,2,2,3,3,2,2,3,3,2,2
437,16:51:58.732,2,2,2,3,3,2,2,3,3,2,2
438,16:51:58.980,2,2,2,3,3,2,2,3,3,2,2
439,16:51:59.229,2,2,2,3,3,2,2,3,3,2,2
440,16:51:59.478,2,2,2,3,3,2,2,3,3,2,2
441,16:51:59.728,2,2,2,3,3,2,2,3,3,2,2
442,16:51:59.978,2,2,2,3,3,2,2,3,3,2,2
443,16:52:00.229,2,2,2,3,3,2,2,3,3,2,2
444,16:52:00.479,2,2,2,3,3,2,2,3,3,2,2
445,16:52:00.728,2,2,2,3,3,2,2,3,3,2,2
446,16:52:00.979,2,2,2,3,3,2,2,3,3,2,2
447,16:52:01.228,2,2,2,3,3,2,2,3,3,2,2
448,16:52:01.479,2,2,2,3,3,2,2,3,3,2,2
449,16:52:01.728,2,2,2,3,3,2,2,3,3,2,2
450,16:52:01.976,2,2,2,3,3,2,2,3,3,2,2
451,16:52:02.228,2,2,2,3,3,2,2,3,3,2,2
452,16:52:02.477,2,2,2,3,3,2,2,3,3,2,2
453,16:52:02.728,2,2,2,3,3,2,2,3,3,2,2
454,16:52:03.004,2,2,2,3,3,2,2,3,3,2,2
455,16:52:03.227,2,2,2,3,3,2,2,3,3,2,2
456,16:52:03.478,2,2,2,3,3,2,2,3,3,2,2
457,16:52:03.727,2,2,2,3,3,2,2,3,3,2,2
458,16:52:03.976,2,2,2,3,3,2,2,3,3,2,2
459,16:52:04.227,2,2,2,3,3,2,2,3,3,2,2
460,16:52:04.477,2,2,2,3,3,2,2,3,3,2,2
461,16:52:04.725,2,2,2,3,3,2,2,3,3,2,2
462,16:52:04.985,2,2,2,3,3,2,2,3,3,2,2
463,16:52:05.223,2,2,2,3,3,2,2,3,3,2,2
464,16:52:05.474,2,2,2,3,3,2,2,3,3,2,2
465,16:52:05.726,2,2,2,3,3,2,2,3,3,2,2
466,16:52:05.975,2,2,2,3,3,2,2,3,3,2,2
467,16:52:06.226,2,2,2,3,3,2,2,3,3,2,2
468,16:52:06.474,2,2,2,3,3,2,2,3,3,2,2
469,16:52:06.724,2,2,2,3,3,2,2,3,3,2,2
470,16:52:06.974,2,2,2,3,3,2,2,3,3,2,2
471,16:52:07.224,2,2,2,3,3,2,2,3,3,2,2
472,16:52:07.473,2,2,2,3,3,2,2,3,3,2,2
473,16:52:07.724,2,2,2,3,3,2,2,3,3,2,2
474,16:52:07.973,2,2,2,3,3,2,2,3,3,2,2
475,16:52:08.224,2,2,2,3,3,2,2,3,3,2,2
476,16:52:08.473,2,2,2,3,3,2,2,3,3,2,2
477,16:52:08.723,2,2,2,3,3,2,2,3,3,2,2
478,16:52:08.973,2,2,2,3,3,2,2,3,3,2,2
479,16:52:09.223,2,2,2,3,3,2,2,3,3,2,2
480,16:52:09.474,2,2,2,3,3,2,2,3,3,2,2
481,16:52:09.718,2,2,2,3,3,2,2,3,3,2,2
482,16:52:09.973,2,2,2,3,3,2,2,3,3,2,2
483,16:52:10.222,2,2,2,3,3,2,2,3,3,2,2
484,16:52:10.472,2,2,2,3,3,2,2,3,3,2,2
485,16:52:10.722,2,2,2,3,3,2,2,3,3,2,2
486,16:52:10.973,2,2,2,3,3,2,2,3,3,2,2
487,16:52:11.222,2,2,2,3,3,2,2,3,3,2,2
488,16:52:11.473,2,2,2,3,3,2,2,3,3,2,2
489,16:52:11.724,2,2,2,3,3,2,2,3,3,2,2
490,16:52:11.964,2,2,2,3,3,2,2,3,3,2,2
491,16:52:12.222,2,2,2,3,3,2,2,3,3,2,2
492,16:52:12.472,2,2,2,3,3,2,2,3,3,2,2
493,16:52:12.722,2,2,2,3,3,2,2,3,3,2,2
494,16:52:12.969,2,2,2,3,3,2,2,3,3,2,2
495,16:52:13.219,2,2,2,3,3,2,2,3,3,2,2
496,16:52:13.471,2,2,2,3,3,2,2,3,3,2,2
497,16:52:13.727,2,2,2,3,3,2,2,3,3,2,2
498,16:52:13.969,2,2,2,3,3,2,2,3,3,2,2
499,16:52:14.220,2,2,2,3,3,2,2,3,3,2,2
500,16:52:14.469,2,2,2,3,3,2,2,3,3,2,2
501,16:52:14.720,2,2,2,3,3,2,2,3,3,2,2
502,16:52:14.967,2,2,2,3,3,2,2,3,3,2,2
503,16:52:15.219,2,2,2,3,3,2,2,3,3,2,2
504,16:52:15.479,2,2,2,3,3,2,2,3,3,2,2
505,16:52:15.718,2,2,2,3,3,2,2,3,3,2,2
506,16:52:15.970,2,2,2,3,3,2,2,3,3,2,2
507,16:52:16.220,2,2,2,3,3,2,2,3,3,2,2
508,16:52:16.470,2,2,2,3,3,2,2,3,3,2,2
509,16:52:16.719,2,2,2,3,3,2,2,3,3,2,2
510,16:52:16.968,2,2,2,3,3,2,2,3,3,2,2
511,16:52:17.219,2,2,2,3,3,2,2,3,3,2,2
512,16:52:17.469,2,2,2,3,3,2,2,3,3,2,2
513,16:52:17.719,2,2,2,3,3,2,2,3,3,2,2
514,16:52:17.959,2,2,2,3,3,2,2,3,3,2,2
515,16:52:18.216,2,2,2,3,3,2,2,3,3,2,2
516,16:52:18.467,2,2,2,3,3,2,2,3,3,2,2
517,16:52:18.714,2,2,2,3,3,2,2,3,3,2,2
518,16:52:18.966,2,2,2,3,3,2,2,3,3,2,2
519,16:52:19.216,2,2,2,3,3,2,2,3,3,2,2
520,16:52:19.466,2,2,2,3,3,2,2,3,3,2,2
521,16:52:19.715,2,2,2,3,3,2,2,3,3,2,2
522,16:52:19.966,2,2,2,3,3,2,2,3,3,2,2
523,16:52:20.215,2,2,2,3,3,2,2,3,3,2,2
524,16:52:20.466,2,2,2,3,3,2,2,3,3,2,2
525,16:52:20.715,2,2,2,3,3,2,2,3,3,2,2
526,16:52:20.964,2,2,2,3,3,2,2,3,3,2,2
527,16:52:21.215,2,2,2,3,3,2,2,3,3,2,2
528,16:52:21.464,2,2,2,3,3,2,2,3,3,2,2
529,16:52:21.714,2,2,2,3,3,2,2,3,3,2,2
530,16:52:21.964,2,2,2,3,3,2,2,3,3,2,2
531,16:52:22.214,2,2,2,3,3,2,2,3,3,2,2
532,16:52:22.465,2,2,2,3,3,2,2,3,3,2,2
533,16:52:22.715,2,2,2,3,3,2,2,3,3,2,2
534,16:52:22.964,2,2,2,3,3,2,2,3,3,2,2
535,16:52:23.212,2,2,2,3,3,2,2,3,3,2,2
536,16:52:23.478,2,2,2,3,3,2,2,3,3,2,2
537,16:52:23.713,2,2,2,3,3,2,2,3,3,2,2
538,16:52:23.963,2,2,2,3,3,2,2,3,3,2,2
539,16:52:24.213,2,2,2,3,3,2,2,3,3,2,2
540,16:52:24.462,2,2,2,3,3,2,2,3,3,2,2
541,16:52:24.711,2,2,2,3,3,2,2,3,3,2,2
542,16:52:24.962,2,2,2,3,3,2,2,3,3,2,2
543,16:52:25.211,2,2,2,3,3,2,2,3,3,2,2
544,16:52:25.462,2,2,2,3,3,2,2,3,3,2,2
545,16:52:25.713,2,2,2,3,3,2,2,3,3,2,2
546,16:52:25.962,2,2,2,3,3,2,2,3,3,2,2
547,16:52:26.211,2,2,2,3,3,2,2,3,3,2,2
548,16:52:26.463,2,2,2,3,3,2,2,3,3,2,2
549,16:52:26.710,2,2,2,3,3,2,2,3,3,2,2
550,16:52:26.962,2,2,2,3,3,2,2,3,3,2,2
551,16:52:27.211,2,2,2,3,3,2,2,3,3,2,2
552,16:52:27.462,2,2,2,3,3,2,2,3,3,2,2
553,16:52:27.735,2,2,2,3,3,2,2,3,3,2,2
554,16:52:27.963,2,2,2,3,3,2,2,3,3,2,2
555,16:52:28.210,2,2,2,3,3,2,2,3,3,2,2
556,16:52:28.468,2,2,2,3,3,2,2,3,3,2,2
557,16:52:28.708,2,2,2,3,3,2,2,3,3,2,2
558,16:52:28.957,2,2,2,3,3,2,2,3,3,2,2
559,16:52:29.202,2,2,2,3,3,2,2,3,3,2,2
560,16:52:29.457,2,2,2,3,3,2,2,3,3,2,2
561,16:52:29.706,2,2,2,3,3,2,2,3,3,2,2
562,16:52:29.957,2,2,2,3,3,2,2,3,3,2,2
563,16:53:21.906,3,3,3,3,2,2,3,4,4,3,3
564,16:53:22.156,3,3,3,3,2,2,3,4,4,3,3
565,16:53:22.406,3,3,3,3,2,2,3,4,4,3,3
566,16:53:22.657,3,3,3,3,2,2,3,4,4,3,3
567,16:53:22.927,3,3,3,3,2,2,3,4,4,3,3
568,16:53:23.155,3,3,3,3,2,2,3,4,4,3,3
569,16:53:23.405,3,3,3,3,2,2,3,4,4,3,3
570,16:53:23.655,3,3,3,3,2,2,3,4,4,3,3
571,16:53:23.907,3,3,3,3,2,2,3,4,4,3,3
572,16:53:24.154,3,3,3,3,2,2,3,4,4,3,3
573,16:53:24.400,3,3,3,3,2,2,3,4,4,3,3
574,16:53:24.654,3,3,3,3,2,2,3,4,4,3,3
575,16:53:24.905,3,3,3,3,2,2,3,4,4,3,3
576,16:53:25.155,3,3,3,3,2,2,3,4,4,3,3
577,16:53:25.403,3,3,3,3,2,2,3,4,4,3,3
578,16:53:25.654,3,3,3,3,2,2,3,4,4,3,3
579,16:53:25.904,3,3,3,3,2,2,3,4,4,3,3
580,16:53:26.145,3,3,3,3,2,2,3,4,4,3,3
581,16:53:26.403,3,3,3,3,2,2,3,4,4,3,3
582,16:53:26.653,3,3,3,3,2,2,3,4,4,3,3
583,16:53:26.904,3,3,3,3,2,2,3,4,4,3,3
584,16:53:27.153,3,3,3,3,2,2,3,4,4,3,3
585,16:53:27.402,3,3,3,3,2,2,3,4,4,3,3
586,16:53:27.644,3,3,3,3,2,2,3,4,4,3,3
587,16:53:27.901,3,3,3,3,2,2,3,4,4,3,3
588,16:53:28.153,3,3,3,3,2,2,3,4,4,3,3
589,16:53:28.404,3,3,3,3,2,2,3,4,4,3,3
590,16:53:28.652,3,3,3,3,2,2,3,4,4,3,3
591,16:53:28.904,3,3,3,3,2,2,3,4,4,3,3
592,16:53:29.154,3,3,3,3,2,2,3,4,4,3,3
593,16:53:29.404,3,3,3,3,2,2,3,4,4,3,3
594,16:53:29.643,3,3,3,3,2,2,3,4,4,3,3
595,16:53:29.908,3,3,3,3,2,2,3,4,4,3,3
596,16:53:30.154,3,3,3,3,2,2,3,4,4,3,3
597,16:53:30.402,3,3,3,3,2,2,3,4,4,3,3
598,16:53:30.651,3,3,3,3,2,2,3,4,4,3,3
599,16:53:30.900,3,3,3,3,2,2,3,4,4,3,3
600,16:53:31.148,3,3,3,3,2,2,3,4,4,3,3
601,16:53:31.402,3,3,3,3,2,2,3,4,4,3,3
602,16:53:31.651,3,3,3,3,2,2,3,4,4,3,3
603,16:53:31.907,3,3,3,3,2,2,3,4,4,3,3
604,16:53:32.152,3,3,3,3,2,2,3,4,4,3,3
605,16:53:32.400,3,3,3,3,2,2,3,4,4,3,3
606,16:53:32.655,3,3,3,3,2,2,3,4,4,3,3
607,16:53:32.908,3,3,3,3,2,2,3,4,4,3,3
608,16:53:33.152,3,3,3,3,2,2,3,4,4,3,3
609,16:53:33.402,3,3,3,3,2,2,3,4,4,3,3
610,16:53:33.648,3,3,3,3,2,2,3,4,4,3,3
611,16:53:33.897,3,3,3,3,2,2,3,4,4,3,3
612,16:53:34.149,3,3,3,3,2,2,3,4,4,3,3
613,16:53:34.398,3,3,3,3,2,2,3,4,4,3,3
614,16:53:34.649,3,3,3,3,2,2,3,4,4,3,3
615,16:53:34.897,3,3,3,3,2,2,3,4,4,3,3
616,16:53:35.164,3,3,3,3,2,2,3,4,4,3,3
617,16:53:35.397,3,3,3,3,2,2,3,4,4,3,3
618,16:53:35.651,3,3,3,3,2,2,3,4,4,3,3
619,16:53:35.897,3,3,3,3,2,2,3,4,4,3,3
620,16:53:36.147,3,3,3,3,2,2,3,4,4,3,3
621,16:53:36.398,3,3,3,3,2,2,3,4,4,3,3
622,16:53:36.647,3,3,3,3,2,2,3,4,4,3,3
623,16:53:36.898,3,3,3,3,2,2,3,4,4,3,3
624,16:53:37.147,3,3,3,3,2,2,3,4,4,3,3
625,16:53:37.404,3,3,3,3,2,2,3,4,4,3,3
626,16:53:37.654,3,3,3,3,2,2,3,4,4,3,3
627,16:53:37.895,3,3,3,3,2,2,3,4,4,3,3
628,16:53:38.145,3,3,3,3,2,2,3,4,4,3,3
629,16:53:38.399,3,3,3,3,2,2,3,4,4,3,3
630,16:53:38.643,3,3,3,3,2,2,3,4,4,3,3
631,16:53:38.894,3,3,3,3,2,2,3,4,4,3,3
632,16:53:39.144,3,3,3,3,2,2,3,4,4,3,3
633,16:53:39.394,3,3,3,3,2,2,3,4,4,3,3
634,16:53:39.644,3,3,3,3,2,2,3,4,4,3,3
635,16:53:39.895,3,3,3,3,2,2,3,4,4,3,3
636,16:53:40.143,3,3,3,3,2,2,3,4,4,3,3
637,16:53:40.394,3,3,3,3,2,2,3,4,4,3,3
638,16:53:40.643,3,3,3,3,2,2,3,4,4,3,3
639,16:53:40.892,3,3,3,3,2,2,3,4,4,3,3
640,16:53:41.143,3,3,3,3,2,2,3,4,4,3,3
641,16:53:41.392,3,3,3,3,2,2,3,4,4,3,3
642,16:53:41.644,3,3,3,3,2,2,3,4,4,3,3
643,16:53:41.896,3,3,3,3,2,2,3,4,4,3,3
644,16:53:42.145,3,3,3,3,2,2,3,4,4,3,3
645,16:53:42.392,3,3,3,3,2,2,3,4,4,3,3
646,16:53:42.642,3,3,3,3,2,2,3,4,4,3,3
647,16:53:42.893,3,3,3,3,2,2,3,4,4,3,3
648,16:53:43.144,3,3,3,3,2,2,3,4,4,3,3
649,16:53:43.392,3,3,3,3,2,2,3,4,4,3,3
650,16:53:43.642,3,3,3,3,2,2,3,4,4,3,3
651,16:53:43.894,3,3,3,3,2,2,3,4,4,3,3
652,16:53:44.141,3,3,3,3,2,2,3,4,4,3,3
653,16:53:44.389,3,3,3,3,2,2,3,4,4,3,3
654,16:53:44.639,3,3,3,3,2,2,3,4,4,3,3
655,16:53:44.890,3,3,3,3,2,2,3,4,4,3,3
656,16:53:45.141,3,3,3,3,2,2,3,4,4,3,3
657,16:53:45.392,3,3,3,3,2,2,3,4,4,3,3
658,16:53:45.640,3,3,3,3,2,2,3,4,4,3,3
659,16:53:45.889,3,3,3,3,2,2,3,4,4,3,3
660,16:53:46.156,3,3,3,3,2,2,3,4,4,3,3
661,16:53:46.391,3,3,3,3,2,2,3,4,4,3,3
662,16:53:46.642,3,3,3,3,2,2,3,4,4,3,3
663,16:53:46.890,3,3,3,3,2,2,3,4,4,3,3
664,16:53:47.142,3,3,3,3,2,2,3,4,4,3,3
665,16:53:47.414,3,3,3,3,2,2,3,4,4,3,3
666,16:53:47.640,3,3,3,3,2,2,3,4,4,3,3
667,16:53:47.887,3,3,3,3,2,2,3,4,4,3,3
668,16:53:48.137,3,3,3,3,2,2,3,4,4,3,3
669,16:53:48.386,3,3,3,3,2,2,3,4,4,3,3
670,16:53:48.636,3,3,3,3,2,2,3,4,4,3,3
671,16:53:48.886,3,3,3,3,2,2,3,4,4,3,3
672,16:53:49.138,3,3,3,3,2,2,3,4,4,3,3
673,16:53:49.387,3,3,3,3,2,2,3,4,4,3,3
674,16:53:49.639,3,3,3,3,2,2,3,4,4,3,3
675,16:53:49.887,3,3,3,3,2,2,3,4,4,3,3
676,16:53:50.136,3,3,3,3,2,2,3,4,4,3,3
677,16:53:50.387,3,3,3,3,2,2,3,4,4,3,3
678,16:53:50.628,3,3,3,3,2,2,3,4,4,3,3
679,16:53:50.885,3,3,3,3,2,2,3,4,4,3,3
680,16:53:51.136,3,3,3,3,2,2,3,4,4,3,3
681,16:53:51.387,3,3,3,3,2,2,3,4,4,3,3
682,16:53:51.636,3,3,3,3,2,2,3,4,4,3,3
683,16:53:51.886,3,3,3,3,2,2,3,4,4,3,3
684,16:53:52.138,3,3,3,3,2,2,3,4,4,3,3
685,16:53:52.385,3,3,3,3,2,2,3,4,4,3,3
686,16:53:52.635,3,3,3,3,2,2,3,4,4,3,3
687,16:53:52.895,3,3,3,3,2,2,3,4,4,3,3
688,16:53:53.133,3,3,3,3,2,2,3,4,4,3,3
689,16:53:53.383,3,3,3,3,2,2,3,4,4,3,3
690,16:53:53.633,3,3,3,3,2,2,3,4,4,3,3
691,16:53:53.883,3,3,3,3,2,2,3,4,4,3,3
692,16:53:54.136,3,3,3,3,2,2,3,4,4,3,3
693,16:53:54.385,3,3,3,3,2,2,3,4,4,3,3
694,16:53:54.634,3,3,3,3,2,2,3,4,4,3,3
695,16:53:54.883,3,3,3,3,2,2,3,4,4,3,3
696,16:53:55.134,3,3,3,3,2,2,3,4,4,3,3
697,16:53:55.385,3,3,3,3,2,2,3,4,4,3,3
698,16:53:55.634,3,3,3,3,2,2,3,4,4,3,3
699,16:53:55.884,3,3,3,3,2,2,3,4,4,3,3
700,16:53:56.133,3,3,3,3,2,2,3,4,4,3,3
701,16:53:56.385,3,3,3,3,2,2,3,4,4,3,3
702,16:53:56.624,3,3,3,3,2,2,3,4,4,3,3
703,16:53:56.883,3,3,3,3,2,2,3,4,4,3,3
704,16:53:57.133,3,3,3,3,2,2,3,4,4,3,3
705,16:53:57.382,3,3,3,3,2,2,3,4,4,3,3
706,16:53:57.631,3,3,3,3,2,2,3,4,4,3,3
707,16:53:57.880,3,3,3,3,2,2,3,4,4,3,3
708,16:53:58.127,3,3,3,3,2,2,3,4,4,3,3
709,16:53:58.379,3,3,3,3,2,2,3,4,4,3,3
710,16:53:58.631,3,3,3,3,2,2,3,4,4,3,3
711,16:53:58.883,3,3,3,3,2,2,3,4,4,3,3
712,16:53:59.128,3,3,3,3,2,2,3,4,4,3,3
713,16:53:59.377,3,3,3,3,2,2,3,4,4,3,3
714,16:53:59.631,3,3,3,3,2,2,3,4,4,3,3
715,16:53:59.883,3,3,3,3,2,2,3,4,4,3,3
716,16:54:00.135,3,3,3,3,2,2,3,4,4,3,3
717,16:54:00.379,3,3,3,3,2,2,3,4,4,3,3
718,16:54:00.629,3,3,3,3,2,2,3,4,4,3,3
719,16:54:00.880,3,3,3,3,2,2,3,4,4,3,3
720,16:54:01.128,3,3,3,3,2,2,3,4,4,3,3
721,16:54:01.377,3,3,3,3,2,2,3,4,4,3,3
722,16:54:01.627,3,3,3,3,2,2,3,4,4,3,3
723,16:54:01.877,3,3,3,3,2,2,3,4,4,3,3
724,16:54:02.127,3,3,3,3,2,2,3,4,4,3,3
725,16:54:02.378,3,3,3,3,2,2,3,4,4,3,3
726,16:54:02.627,3,3,3,3,2,2,3,4,4,3,3
727,16:54:02.877,3,3,3,3,2,2,3,4,4,3,3
728,16:54:03.126,3,3,3,3,2,2,3,4,4,3,3
729,16:54:03.376,3,3,3,3,2,2,3,4,4,3,3
730,16:54:03.627,3,3,3,3,2,2,3,4,4,3,3
731,16:54:03.877,3,3,3,3,2,2,3,4,4,3,3
732,16:54:04.129,3,3,3,3,2,2,3,4,4,3,3
733,16:54:04.377,3,3,3,3,2,2,3,4,4,3,3
734,16:54:04.630,3,3,3,3,2,2,3,4,4,3,3
735,16:54:04.877,3,3,3,3,2,2,3,4,4,3,3
736,16:54:05.128,3,3,3,3,2,2,3,4,4,3,3
737,16:54:05.378,3,3,3,3,2,2,3,4,4,3,3
738,16:54:05.628,3,3,3,3,2,2,3,4,4,3,3
739,16:54:05.879,3,3,3,3,2,2,3,4,4,3,3
740,16:54:06.126,3,3,3,3,2,2,3,4,4,3,3
741,16:54:06.377,3,3,3,3,2,2,3,4,4,3,3
742,16:54:06.653,3,3,3,3,2,2,3,4,4,3,3
743,16:54:06.877,3,3,3,3,2,2,3,4,4,3,3
744,16:54:07.129,3,3,3,3,2,2,3,4,4,3,3
745,16:54:07.377,3,3,3,3,2,2,3,4,4,3,3
746,16:54:07.627,3,3,3,3,2,2,3,4,4,3,3
747,16:54:07.877,3,3,3,3,2,2,3,4,4,3,3
748,16:54:08.125,3,3,3,3,2,2,3,4,4,3,3
749,16:54:08.376,3,3,3,3,2,2,3,4,4,3,3
750,16:54:08.625,3,3,3,3,2,2,3,4,4,3,3
751,16:54:08.876,3,3,3,3,2,2,3,4,4,3,3
752,16:54:09.125,3,3,3,3,2,2,3,4,4,3,3
753,16:54:09.364,3,3,3,3,2,2,3,4,4,3,3
754,16:54:09.625,3,3,3,3,2,2,3,4,4,3,3
755,16:54:09.875,3,3,3,3,2,2,3,4,4,3,3
756,16:54:10.128,3,3,3,3,2,2,3,4,4,3,3
757,16:54:10.372,3,3,3,3,2,2,3,4,4,3,3
758,16:54:10.628,3,3,3,3,2,2,3,4,4,3,3
759,16:54:10.874,3,3,3,3,2,2,3,4,4,3,3
760,16:54:11.123,3,3,3,3,2,2,3,4,4,3,3
761,16:54:11.373,3,3,3,3,2,2,3,4,4,3,3
762,16:54:11.623,3,3,3,3,2,2,3,4,4,3,3
763,16:54:11.873,3,3,3,3,2,2,3,4,4,3,3
764,16:54:12.128,3,3,3,3,2,2,3,4,4,3,3
765,16:54:12.374,3,3,3,3,2,2,3,4,4,3,3
766,16:54:12.623,3,3,3,3,2,2,3,4,4,3,3
767,16:54:12.873,3,3,3,3,2,2,3,4,4,3,3
768,16:54:13.123,3,3,3,3,2,2,3,4,4,3,3
769,16:54:13.368,3,3,3,3,2,2,3,4,4,3,3
770,16:54:13.622,3,3,3,3,2,2,3,4,4,3,3
771,16:54:13.872,3,3,3,3,2,2,3,4,4,3,3
772,16:54:14.121,3,3,3,3,2,2,3,4,4,3,3
773,16:54:14.373,3,3,3,3,2,2,3,4,4,3,3
774,16:54:14.621,3,3,3,3,2,2,3,4,4,3,3
775,16:54:14.875,3,3,3,3,2,2,3,4,4,3,3
776,16:54:15.140,3,3,3,3,2,2,3,4,4,3,3
777,16:54:15.375,3,3,3,3,2,2,3,4,4,3,3
778,16:54:15.623,3,3,3,3,2,2,3,4,4,3,3
779,16:54:15.887,3,3,3,3,2,2,3,4,4,3,3
780,16:54:16.121,3,3,3,3,2,2,3,4,4,3,3
781,16:54:16.371,3,3,3,3,2,2,3,4,4,3,3
782,16:54:16.639,3,3,3,3,2,2,3,4,4,3,3
783,16:54:16.873,3,3,3,3,2,2,3,4,4,3,3
784,16:54:17.115,3,3,3,3,2,2,3,4,4,3,3
785,16:54:17.370,3,3,3,3,2,2,3,4,4,3,3
786,16:54:17.622,3,3,3,3,2,2,3,4,4,3,3
787,16:54:17.885,3,3,3,3,2,2,3,4,4,3,3
788,16:54:18.119,3,3,3,3,2,2,3,4,4,3,3
789,16:54:18.368,3,3,3,3,2,2,3,4,4,3,3
790,16:54:18.618,3,3,3,3,2,2,3,4,4,3,3
791,16:54:18.870,3,3,3,3,2,2,3,4,4,3,3
792,16:54:19.121,3,3,3,3,2,2,3,4,4,3,3
793,16:54:19.372,3,3,3,3,2,2,3,4,4,3,3
794,16:54:19.620,3,3,3,3,2,2,3,4,4,3,3
795,16:54:19.868,3,3,3,3,2,2,3,4,4,3,3
796,16:54:20.117,3,3,3,3,2,2,3,4,4,3,3
797,16:54:20.378,3,3,3,3,2,2,3,4,4,3,3
798,16:54:20.615,3,3,3,3,2,2,3,4,4,3,3
799,16:54:20.866,3,3,3,3,2,2,3,4,4,3,3
800,16:54:21.113,3,3,3,3,2,2,3,4,4,3,3
801,16:54:21.373,3,3,3,3,2,2,3,4,4,3,3
802,16:54:21.615,3,3,3,3,2,2,3,4,4,3,3
803,16:54:21.867,3,3,3,3,2,2,3,4,4,3,3
804,16:54:22.119,3,3,3,3,2,2,3,4,4,3,3
805,16:54:22.365,3,3,3,3,2,2,3,4,4,3,3
806,16:54:22.614,3,3,3,3,2,2,3,4,4,3,3
807,16:54:22.864,3,3,3,3,2,2,3,4,4,3,3
808,16:54:23.114,3,3,3,3,2,2,3,4,4,3,3
809,16:54:23.364,3,3,3,3,2,2,3,4,4,3,3
810,16:54:23.616,3,3,3,3,2,2,3,4,4,3,3
811,16:54:23.865,3,3,3,3,2,2,3,4,4,3,3
812,16:54:24.133,3,3,3,3,2,2,3,4,4,3,3
813,16:54:24.364,3,3,3,3,2,2,3,4,4,3,3
814,16:54:24.615,3,3,3,3,2,2,3,4,4,3,3
815,16:54:24.864,3,3,3,3,2,2,3,4,4,3,3
816,16:54:25.114,3,3,3,3,2,2,3,4,4,3,3
817,16:54:25.367,3,3,3,3,2,2,3,4,4,3,3
818,16:54:25.637,3,3,3,3,2,2,3,4,4,3,3
819,16:54:25.880,3,3,3,3,2,2,3,4,4,3,3
820,16:54:26.114,3,3,3,3,2,2,3,4,4,3,3
821,16:54:26.360,3,3,3,3,2,2,3,4,4,3,3
822,16:54:26.615,3,3,3,3,2,2,3,4,4,3,3
823,16:54:26.862,3,3,3,3,2,2,3,4,4,3,3
824,16:54:27.116,3,3,3,3,2,2,3,4,4,3,3
825,16:54:27.362,3,3,3,3,2,2,3,4,4,3,3
826,16:54:27.606,3,3,3,3,2,2,3,4,4,3,3
827,16:54:27.864,3,3,3,3,2,2,3,4,4,3,3
828,16:54:28.114,3,3,3,3,2,2,3,4,4,3,3
829,16:54:28.364,3,3,3,3,2,2,3,4,4,3,3
830,16:54:28.611,3,3,3,3,2,2,3,4,4,3,3
831,16:54:28.861,3,3,3,3,2,2,3,4,4,3,3
832,16:54:29.113,3,3,3,3,2,2,3,4,4,3,3
833,16:54:29.367,3,3,3,3,2,2,3,4,4,3,3
834,16:54:29.615,3,3,3,3,2,2,3,4,4,3,3
835,16:54:29.865,3,3,3,3,2,2,3,4,4,3,3
836,16:54:30.114,3,3,3,3,2,2,3,4,4,3,3
837,16:54:30.360,3,3,3,3,2,2,3,4,4,3,3
838,16:54:30.604,3,3,3,3,2,2,3,4,4,3,3
839,16:54:30.862,3,3,3,3,2,2,3,4,4,3,3
840,16:54:31.112,3,3,3,3,2,2,3,4,4,3,3
841,16:54:31.359,3,3,3,3,2,2,3,4,4,3,3
842,16:54:31.607,3,3,3,3,2,2,3,4,4,3,3
843,16:54:31.876,3,3,3,3,2,2,3,4,4,3,3
844,16:54:32.109,3,3,3,3,2,2,3,4,4,3,3
845,16:54:32.359,3,3,3,3,2,2,3,4,4,3,3
846,16:54:32.608,3,3,3,3,2,2,3,4,4,3,3
847,16:54:32.859,3,3,3,3,2,2,3,4,4,3,3
848,16:54:33.106,3,3,3,3,2,2,3,4,4,3,3
849,16:54:33.359,3,3,3,3,2,2,3,4,4,3,3
850,16:54:33.608,3,3,3,3,2,2,3,4,4,3,3
851,16:54:33.859,3,3,3,3,2,2,3,4,4,3,3
852,16:54:34.108,3,3,3,3,2,2,3,4,4,3,3
853,16:54:34.383,3,3,3,3,2,2,3,4,4,3,3
854,16:54:34.607,3,3,3,3,2,2,3,4,4,3,3
855,16:54:34.857,3,3,3,3,2,2,3,4,4,3,3
856,16:54:35.106,3,3,3,3,2,2,3,4,4,3,3
857,16:54:35.357,3,3,3,3,2,2,3,4,4,3,3
858,16:54:35.612,3,3,3,3,2,2,3,4,4,3,3
859,16:54:35.875,3,3,3,3,2,2,3,4,4,3,3
860,16:54:36.108,3,3,3,3,2,2,3,4,4,3,3
861,16:54:36.356,3,3,3,3,2,2,3,4,4,3,3
862,16:54:36.606,3,3,3,3,2,2,3,4,4,3,3
863,16:54:36.856,3,3,3,3,2,2,3,4,4,3,3
864,16:54:37.116,3,3,3,3,2,2,3,4,4,3,3
865,16:54:37.355,3,3,3,3,2,2,3,4,4,3,3
866,16:54:37.605,3,3,3,3,2,2,3,4,4,3,3
867,16:54:37.856,3,3,3,3,2,2,3,4,4,3,3
868,16:54:38.105,3,3,3,3,2,2,3,4,4,3,3
869,16:54:38.357,3,3,3,3,2,2,3,4,4,3,3
870,16:54:38.605,3,3,3,3,2,2,3,4,4,3,3
871,16:54:38.857,3,3,3,3,2,2,3,4,4,3,3
872,16:54:39.106,3,3,3,3,2,2,3,4,4,3,3
873,16:54:39.361,3,3,3,3,2,2,3,4,4,3,3
874,16:54:39.602,3,3,3,3,2,2,3,4,4,3,3
875,16:54:39.853,3,3,3,3,2,2,3,4,4,3,3
876,16:54:40.103,3,3,3,3,2,2,3,4,4,3,3
877,16:54:40.366,3,3,3,3,2,2,3,4,4,3,3
878,16:54:40.604,3,3,3,3,2,2,3,4,4,3,3
879,16:54:40.853,3,3,3,3,2,2,3,4,4,3,3
880,16:54:41.106,3,3,3,3,2,2,3,4,4,3,3
881,16:54:41.355,3,3,3,3,2,2,3,4,4,3,3
882,16:54:41.603,3,3,3,3,2,2,3,4,4,3,3
883,16:54:41.843,3,3,3,3,2,2,3,4,4,3,3
884,16:54:42.104,3,3,3,3,2,2,3,4,4,3,3
885,16:54:42.353,3,3,3,3,2,2,3,4,4,3,3
886,16:54:42.604,3,3,3,3,2,2,3,4,4,3,3
887,16:54:42.854,3,3,3,3,2,2,3,4,4,3,3
888,16:54:43.115,3,3,3,3,2,2,3,4,4,3,3
889,16:54:43.354,3,3,3,3,2,2,3,4,4,3,3
890,16:54:43.603,3,3,3,3,2,2,3,4,4,3,3
891,16:54:43.871,3,3,3,3,2,2,3,4,4,3,3
892,16:54:44.100,3,3,3,3,2,2,3,4,4,3,3
893,16:54:44.355,3,3,3,3,2,2,3,4,4,3,3
894,16:54:44.600,3,3,3,3,2,2,3,4,4,3,3
895,16:54:44.875,3,3,3,3,2,2,3,4,4,3,3
896,16:54:45.099,3,3,3,3,2,2,3,4,4,3,3
897,16:54:45.349,3,3,3,3,2,2,3,4,4,3,3
898,16:54:45.599,3,3,3,3,2,2,3,4,4,3,3
899,16:54:45.867,3,3,3,3,2,2,3,4,4,3,3
900,16:54:46.099,3,3,3,3,2,2,3,4,4,3,3
901,16:54:46.349,3,3,3,3,2,2,3,4,4,3,3
902,16:54:46.599,3,3,3,3,2,2,3,4,4,3,3
903,16:54:46.867,3,3,3,3,2,2,3,4,4,3,3
904,16:54:47.098,3,3,3,3,2,2,3,4,4,3,3
905,16:54:47.348,3,3,3,3,2,2,3,4,4,3,3
906,16:54:47.598,3,3,3,3,2,2,3,4,4,3,3
907,16:54:47.851,3,3,3,3,2,2,3,4,4,3,3
908,16:54:48.105,3,3,3,3,2,2,3,4,4,3,3
909,16:54:48.349,3,3,3,3,2,2,3,4,4,3,3
910,16:54:48.597,3,3,3,3,2,2,3,4,4,3,3
911,16:54:48.846,3,3,3,3,2,2,3,4,4,3,3
912,16:54:49.098,3,3,3,3,2,2,3,4,4,3,3
913,16:54:49.347,3,3,3,3,2,2,3,4,4,3,3
914,16:54:49.599,3,3,3,3,2,2,3,4,4,3,3
915,16:54:49.846,3,3,3,3,2,2,3,4,4,3,3
916,16:54:50.096,3,3,3,3,2,2,3,4,4,3,3
917,16:54:50.340,3,3,3,3,2,2,3,4,4,3,3
918,16:54:50.601,3,3,3,3,2,2,3,4,4,3,3
919,16:54:50.846,3,3,3,3,2,2,3,4,4,3,3
920,16:54:51.098,3,3,3,3,2,2,3,4,4,3,3
921,16:54:51.378,3,3,3,3,2,2,3,4,4,3,3
922,16:55:38.945,3,3,3,4,2,3,4,4,2,3,3
923,16:55:39.193,3,3,3,4,2,3,4,4,2,3,3
924,16:55:39.445,3,3,3,4,2,3,4,4,2,3,3
925,16:55:39.694,3,3,3,4,2,3,4,4,2,3,3
926,16:55:39.944,3,3,3,4,2,3,4,4,2,3,3
927,16:55:40.195,3,3,3,4,2,3,4,4,2,3,3
928,16:55:40.443,3,3,3,4,2,3,4,4,2,3,3
929,16:55:40.693,3,3,3,4,2,3,4,4,2,3,3
930,16:55:40.943,3,3,3,4,2,3,4,4,2,3,3
931,16:55:41.207,3,3,3,4,2,3,4,4,2,3,3
932,16:55:41.441,3,3,3,4,2,3,4,4,2,3,3
933,16:55:41.692,3,3,3,4,2,3,4,4,2,3,3
934,16:55:41.941,3,3,3,4,2,3,4,4,2,3,3
935,16:55:42.195,3,3,3,4,2,3,4,4,2,3,3
936,16:55:42.440,3,3,3,4,2,3,4,4,2,3,3
937,16:55:42.690,3,3,3,4,2,3,4,4,2,3,3
938,16:55:42.939,3,3,3,4,2,3,4,4,2,3,3
939,16:55:43.187,3,3,3,4,2,3,4,4,2,3,3
940,16:55:43.440,3,3,3,4,2,3,4,4,2,3,3
941,16:55:43.689,3,3,3,4,2,3,4,4,2,3,3
942,16:55:43.939,3,3,3,4,2,3,4,4,2,3,3
943,16:55:44.189,3,3,3,4,2,3,4,4,2,3,3
944,16:55:44.450,3,3,3,4,2,3,4,4,2,3,3
945,16:55:44.690,3,3,3,4,2,3,4,4,2,3,3
946,16:55:44.940,3,3,3,4,2,3,4,4,2,3,3
947,16:55:45.191,3,3,3,4,2,3,4,4,2,3,3
948,16:55:45.441,3,3,3,4,2,3,4,4,2,3,3
949,16:55:45.688,3,3,3,4,2,3,4,4,2,3,3
950,16:55:45.940,3,3,3,4,2,3,4,4,2,3,3
951,16:55:46.221,3,3,3,4,2,3,4,4,2,3,3
952,16:55:46.439,3,3,3,4,2,3,4,4,2,3,3
953,16:55:46.689,3,3,3,4,2,3,4,4,2,3,3
954,16:55:46.940,3,3,3,4,2,3,4,4,2,3,3
955,16:55:47.189,3,3,3,4,2,3,4,4,2,3,3
956,16:55:47.436,3,3,3,4,2,3,4,4,2,3,3
957,16:55:47.690,3,3,3,4,2,3,4,4,2,3,3
958,16:55:47.938,3,3,3,4,2,3,4,4,2,3,3
959,16:55:48.190,3,3,3,4,2,3,4,4,2,3,3
960,16:55:48.437,3,3,3,4,2,3,4,4,2,3,3
961,16:55:48.688,3,3,3,4,2,3,4,4,2,3,3
962,16:55:48.938,3,3,3,4,2,3,4,4,2,3,3
963,16:55:49.185,3,3,3,4,2,3,4,4,2,3,3
964,16:55:49.437,3,3,3,4,2,3,4,4,2,3,3
965,16:55:49.686,3,3,3,4,2,3,4,4,2,3,3
966,16:55:49.937,3,3,3,4,2,3,4,4,2,3,3
967,16:55:50.186,3,3,3,4,2,3,4,4,2,3,3
968,16:55:50.436,3,3,3,4,2,3,4,4,2,3,3
969,16:55:50.686,3,3,3,4,2,3,4,4,2,3,3
970,16:55:50.952,3,3,3,4,2,3,4,4,2,3,3
971,16:55:51.186,3,3,3,4,2,3,4,4,2,3,3
972,16:55:51.436,3,3,3,4,2,3,4,4,2,3,3
973,16:55:51.685,3,3,3,4,2,3,4,4,2,3,3
974,16:55:51.934,3,3,3,4,2,3,4,4,2,3,3
975,16:55:52.185,3,3,3,4,2,3,4,4,2,3,3
976,16:55:52.437,3,3,3,4,2,3,4,4,2,3,3
977,16:55:52.685,3,3,3,4,2,3,4,4,2,3,3
978,16:55:52.936,3,3,3,4,2,3,4,4,2,3,3
979,16:55:53.187,3,3,3,4,2,3,4,4,2,3,3
980,16:55:53.435,3,3,3,4,2,3,4,4,2,3,3
981,16:55:53.685,3,3,3,4,2,3,4,4,2,3,3
982,16:55:53.935,3,3,3,4,2,3,4,4,2,3,3
983,16:55:54.184,3,3,3,4,2,3,4,4,2,3,3
984,16:55:54.434,3,3,3,4,2,3,4,4,2,3,3
985,16:55:54.682,3,3,3,4,2,3,4,4,2,3,3
986,16:55:54.934,3,3,3,4,2,3,4,4,2,3,3
987,16:55:55.183,3,3,3,4,2,3,4,4,2,3,3
988,16:55:55.433,3,3,3,4,2,3,4,4,2,3,3
989,16:55:55.683,3,3,3,4,2,3,4,4,2,3,3
990,16:55:55.927,3,3,3,4,2,3,4,4,2,3,3
991,16:55:56.182,3,3,3,4,2,3,4,4,2,3,3
992,16:55:56.432,3,3,3,4,2,3,4,4,2,3,3
993,16:55:56.682,3,3,3,4,2,3,4,4,2,3,3
994,16:55:56.932,3,3,3,4,2,3,4,4,2,3,3
995,16:55:57.182,3,3,3,4,2,3,4,4,2,3,3
996,16:55:57.432,3,3,3,4,2,3,4,4,2,3,3
997,16:55:57.712,3,3,3,4,2,3,4,4,2,3,3
998,16:55:57.932,3,3,3,4,2,3,4,4,2,3,3
999,16:55:58.181,3,3,3,4,2,3,4,4,2,3,3
1000,16:55:58.430,3,3,3,4,2,3,4,4,2,3,3
1001,16:55:58.686,3,3,3,4,2,3,4,4,2,3,3
1002,16:55:58.947,3,3,3,4,2,3,4,4,2,3,3
1003,16:55:59.181,3,3,3,4,2,3,4,4,2,3,3
1004,16:55:59.456,3,3,3,4,2,3,4,4,2,3,3
1005,16:55:59.681,3,3,3,4,2,3,4,4,2,3,3
1006,16:55:59.928,3,3,3,4,2,3,4,4,2,3,3
1007,16:56:00.179,3,3,3,4,2,3,4,4,2,3,3
1008,16:56:00.428,3,3,3,4,2,3,4,4,2,3,3
1009,16:56:00.678,3,3,3,4,2,3,4,4,2,3,3
1010,16:56:00.928,3,3,3,4,2,3,4,4,2,3,3
1011,16:56:01.178,3,3,3,4,2,3,4,4,2,3,3
1012,16:56:01.433,3,3,3,4,2,3,4,4,2,3,3
1013,16:56:01.678,3,3,3,4,2,3,4,4,2,3,3
1014,16:56:01.928,3,3,3,4,2,3,4,4,2,3,3
1015,16:56:02.174,3,3,3,4,2,3,4,4,2,3,3
1016,16:56:02.431,3,3,3,4,2,3,4,4,2,3,3
1017,16:56:02.677,3,3,3,4,2,3,4,4,2,3,3
1018,16:56:02.927,3,3,3,4,2,3,4,4,2,3,3
1019,16:56:03.178,3,3,3,4,2,3,4,4,2,3,3
1020,16:56:03.427,3,3,3,4,2,3,4,4,2,3,3
1021,16:56:03.677,3,3,3,4,2,3,4,4,2,3,3
1022,16:56:03.928,3,3,3,4,2,3,4,4,2,3,3
1023,16:56:04.177,3,3,3,4,2,3,4,4,2,3,3
1024,16:56:04.427,3,3,3,4,2,3,4,4,2,3,3
1025,16:56:04.678,3,3,3,4,2,3,4,4,2,3,3
1026,16:56:04.951,3,3,3,4,2,3,4,4,2,3,3
1027,16:56:05.176,3,3,3,4,2,3,4,4,2,3,3
1028,16:56:05.426,3,3,3,4,2,3,4,4,2,3,3
1029,16:56:05.680,3,3,3,4,2,3,4,4,2,3,3
1030,16:56:05.926,3,3,3,4,2,3,4,4,2,3,3
1031,16:56:06.175,3,3,3,4,2,3,4,4,2,3,3
1032,16:56:06.430,3,3,3,4,2,3,4,4,2,3,3
1033,16:56:06.677,3,3,3,4,2,3,4,4,2,3,3
1034,16:56:06.942,3,3,3,4,2,3,4,4,2,3,3
1035,16:56:07.201,3,3,3,4,2,3,4,4,2,3,3
1036,16:56:07.424,3,3,3,4,2,3,4,4,2,3,3
1037,16:56:07.676,3,3,3,4,2,3,4,4,2,3,3
1038,16:56:07.925,3,3,3,4,2,3,4,4,2,3,3
1039,16:56:08.175,3,3,3,4,2,3,4,4,2,3,3
1040,16:56:08.425,3,3,3,4,2,3,4,4,2,3,3
1041,16:56:08.673,3,3,3,4,2,3,4,4,2,3,3
1042,16:56:08.925,3,3,3,4,2,3,4,4,2,3,3
1043,16:56:09.173,3,3,3,4,2,3,4,4,2,3,3
1044,16:56:09.425,3,3,3,4,2,3,4,4,2,3,3
1045,16:56:09.675,3,3,3,4,2,3,4,4,2,3,3
1046,16:56:09.925,3,3,3,4,2,3,4,4,2,3,3
1047,16:56:10.173,3,3,3,4,2,3,4,4,2,3,3
1048,16:56:10.422,3,3,3,4,2,3,4,4,2,3,3
1049,16:56:10.672,3,3,3,4,2,3,4,4,2,3,3
1050,16:56:10.923,3,3,3,4,2,3,4,4,2,3,3
1051,16:56:11.170,3,3,3,4,2,3,4,4,2,3,3
1052,16:56:11.423,3,3,3,4,2,3,4,4,2,3,3
1053,16:56:11.672,3,3,3,4,2,3,4,4,2,3,3
1054,16:56:11.923,3,3,3,4,2,3,4,4,2,3,3
1055,16:56:12.170,3,3,3,4,2,3,4,4,2,3,3
1056,16:56:12.424,3,3,3,4,2,3,4,4,2,3,3
1057,16:56:12.671,3,3,3,4,2,3,4,4,2,3,3
1058,16:56:12.921,3,3,3,4,2,3,4,4,2,3,3
1059,16:56:13.171,3,3,3,4,2,3,4,4,2,3,3
1060,16:56:13.423,3,3,3,4,2,3,4,4,2,3,3
1061,16:56:13.670,3,3,3,4,2,3,4,4,2,3,3
1062,16:56:13.912,3,3,3,4,2,3,4,4,2,3,3
1063,16:56:14.171,3,3,3,4,2,3,4,4,2,3,3
1064,16:56:14.421,3,3,3,4,2,3,4,4,2,3,3
1065,16:56:14.669,3,3,3,4,2,3,4,4,2,3,3
1066,16:56:14.923,3,3,3,4,2,3,4,4,2,3,3
1067,16:56:15.170,3,3,3,4,2,3,4,4,2,3,3
1068,16:56:15.422,3,3,3,4,2,3,4,4,2,3,3
1069,16:56:15.669,3,3,3,4,2,3,4,4,2,3,3
1070,16:56:15.919,3,3,3,4,2,3,4,4,2,3,3
1071,16:56:16.168,3,3,3,4,2,3,4,4,2,3,3
1072,16:56:16.418,3,3,3,4,2,3,4,4,2,3,3
1073,16:56:16.667,3,3,3,4,2,3,4,4,2,3,3
1074,16:56:16.917,3,3,3,4,2,3,4,4,2,3,3
1075,16:56:17.195,3,3,3,4,2,3,4,4,2,3,3
1076,16:56:17.417,3,3,3,4,2,3,4,4,2,3,3
1077,16:56:17.666,3,3,3,4,2,3,4,4,2,3,3
1078,16:56:17.917,3,3,3,4,2,3,4,4,2,3,3
1079,16:56:18.167,3,3,3,4,2,3,4,4,2,3,3
1080,16:56:18.418,3,3,3,4,2,3,4,4,2,3,3
1081,16:56:18.666,3,3,3,4,2,3,4,4,2,3,3
1082,16:56:18.920,3,3,3,4,2,3,4,4,2,3,3
1083,16:56:19.166,3,3,3,4,2,3,4,4,2,3,3
1084,16:56:19.415,3,3,3,4,2,3,4,4,2,3,3
1085,16:56:19.665,3,3,3,4,2,3,4,4,2,3,3
1086,16:56:19.917,3,3,3,4,2,3,4,4,2,3,3
1087,16:56:20.175,3,3,3,4,2,3,4,4,2,3,3
1088,16:56:20.417,3,3,3,4,2,3,4,4,2,3,3
1089,16:56:20.665,3,3,3,4,2,3,4,4,2,3,3
1090,16:56:20.915,3,3,3,4,2,3,4,4,2,3,3
1091,16:56:21.167,3,3,3,4,2,3,4,4,2,3,3
1092,16:56:21.421,3,3,3,4,2,3,4,4,2,3,3
1093,16:56:21.667,3,3,3,4,2,3,4,4,2,3,3
1094,16:56:21.921,3,3,3,4,2,3,4,4,2,3,3
1095,16:56:22.165,3,3,3,4,2,3,4,4,2,3,3
1096,16:56:22.415,3,3,3,4,2,3,4,4,2,3,3
1097,16:56:22.665,3,3,3,4,2,3,4,4,2,3,3
1098,16:56:22.915,3,3,3,4,2,3,4,4,2,3,3
1099,16:56:23.164,3,3,3,4,2,3,4,4,2,3,3
1100,16:56:23.414,3,3,3,4,2,3,4,4,2,3,3
1101,16:56:23.664,3,3,3,4,2,3,4,4,2,3,3
1102,16:56:23.914,3,3,3,4,2,3,4,4,2,3,3
1103,16:56:24.166,3,3,3,4,2,3,4,4,2,3,3
1104,16:56:24.413,3,3,3,4,2,3,4,4,2,3,3
1105,16:56:24.663,3,3,3,4,2,3,4,4,2,3,3
1106,16:56:24.931,3,3,3,4,2,3,4,4,2,3,3
1107,16:56:25.162,3,3,3,4,2,3,4,4,2,3,3
1108,16:56:25.424,3,3,3,4,2,3,4,4,2,3,3
1109,16:56:25.662,3,3,3,4,2,3,4,4,2,3,3
1110,16:56:25.912,3,3,3,4,2,3,4,4,2,3,3
1111,16:56:26.169,3,3,3,4,2,3,4,4,2,3,3
1112,16:56:26.412,3,3,3,4,2,3,4,4,2,3,3
1113,16:56:26.679,3,3,3,4,2,3,4,4,2,3,3
1114,16:56:26.910,3,3,3,4,2,3,4,4,2,3,3
1115,16:56:27.160,3,3,3,4,2,3,4,4,2,3,3
1116,16:56:27.409,3,3,3,4,2,3,4,4,2,3,3
1117,16:56:27.659,3,3,3,4,2,3,4,4,2,3,3
1118,16:56:27.909,3,3,3,4,2,3,4,4,2,3,3
1119,16:56:28.160,3,3,3,4,2,3,4,4,2,3,3
1120,16:56:28.410,3,3,3,4,2,3,4,4,2,3,3
1121,16:56:28.670,3,3,3,4,2,3,4,4,2,3,3
1122,16:56:28.909,3,3,3,4,2,3,4,4,2,3,3
1123,16:56:29.160,3,3,3,4,2,3,4,4,2,3,3
1124,16:56:29.407,3,3,3,4,2,3,4,4,2,3,3
1125,16:56:29.664,3,3,3,4,2,3,4,4,2,3,3
1126,16:56:29.908,3,3,3,4,2,3,4,4,2,3,3
1127,16:56:30.157,3,3,3,4,2,3,4,4,2,3,3
1128,16:56:30.408,3,3,3,4,2,3,4,4,2,3,3
1129,16:56:30.657,3,3,3,4,2,3,4,4,2,3,3
1130,16:56:30.907,3,3,3,4,2,3,4,4,2,3,3
1131,16:56:31.156,3,3,3,4,2,3,4,4,2,3,3
1132,16:56:31.428,3,3,3,4,2,3,4,4,2,3,3
1133,16:56:31.659,3,3,3,4,2,3,4,4,2,3,3
1134,16:56:31.907,3,3,3,4,2,3,4,4,2,3,3
1135,16:56:32.157,3,3,3,4,2,3,4,4,2,3,3
1136,16:56:32.407,3,3,3,4,2,3,4,4,2,3,3
1137,16:56:32.657,3,3,3,4,2,3,4,4,2,3,3
1138,16:56:32.906,3,3,3,4,2,3,4,4,2,3,3
1139,16:56:33.157,3,3,3,4,2,3,4,4,2,3,3
1140,16:56:33.406,3,3,3,4,2,3,4,4,2,3,3
1141,16:56:33.656,3,3,3,4,2,3,4,4,2,3,3
1142,16:56:33.905,3,3,3,4,2,3,4,4,2,3,3
1143,16:56:34.156,3,3,3,4,2,3,4,4,2,3,3
1144,16:56:34.409,3,3,3,4,2,3,4,4,2,3,3
1145,16:56:34.656,3,3,3,4,2,3,4,4,2,3,3
1146,16:56:34.904,3,3,3,4,2,3,4,4,2,3,3
1147,16:56:35.154,3,3,3,4,2,3,4,4,2,3,3
1148,16:56:35.413,3,3,3,4,2,3,4,4,2,3,3
1149,16:56:35.654,3,3,3,4,2,3,4,4,2,3,3
1150,16:56:35.909,3,3,3,4,2,3,4,4,2,3,3
1151,16:56:36.154,3,3,3,4,2,3,4,4,2,3,3
1152,16:56:36.404,3,3,3,4,2,3,4,4,2,3,3
1153,16:56:36.654,3,3,3,4,2,3,4,4,2,3,3
1154,16:56:36.904,3,3,3,4,2,3,4,4,2,3,3
1155,16:56:37.158,3,3,3,4,2,3,4,4,2,3,3
1156,16:56:37.404,3,3,3,4,2,3,4,4,2,3,3
1157,16:56:37.654,3,3,3,4,2,3,4,4,2,3,3
1158,16:56:37.904,3,3,3,4,2,3,4,4,2,3,3
1159,16:56:38.153,3,3,3,4,2,3,4,4,2,3,3
1160,16:56:38.403,3,3,3,4,2,3,4,4,2,3,3
1161,16:56:38.653,3,3,3,4,2,3,4,4,2,3,3
1162,16:56:38.903,3,3,3,4,2,3,4,4,2,3,3
1163,16:56:39.151,3,3,3,4,2,3,4,4,2,3,3
1164,16:56:39.402,3,3,3,4,2,3,4,4,2,3,3
1165,16:56:39.654,3,3,3,4,2,3,4,4,2,3,3
1166,16:56:39.903,3,3,3,4,2,3,4,4,2,3,3
1167,16:56:40.151,3,3,3,4,2,3,4,4,2,3,3
1168,16:56:40.401,3,3,3,4,2,3,4,4,2,3,3
1169,16:56:40.651,3,3,3,4,2,3,4,4,2,3,3
1170,16:56:40.901,3,3,3,4,2,3,4,4,2,3,3
1171,16:56:41.148,3,3,3,4,2,3,4,4,2,3,3
1172,16:56:41.409,3,3,3,4,2,3,4,4,2,3,3
1173,16:56:41.652,3,3,3,4,2,3,4,4,2,3,3
1174,16:56:41.901,3,3,3,4,2,3,4,4,2,3,3
1175,16:56:42.151,3,3,3,4,2,3,4,4,2,3,3
1176,16:56:42.401,3,3,3,4,2,3,4,4,2,3,3
1177,16:56:42.651,3,3,3,4,2,3,4,4,2,3,3
1178,16:56:42.901,3,3,3,4,2,3,4,4,2,3,3
1179,16:56:43.153,3,3,3,4,2,3,4,4,2,3,3
1180,16:56:43.400,3,3,3,4,2,3,4,4,2,3,3
1181,16:56:43.649,3,3,3,4,2,3,4,4,2,3,3
1182,16:56:43.900,3,3,3,4,2,3,4,4,2,3,3
1183,16:56:44.150,3,3,3,4,2,3,4,4,2,3,3
1184,16:56:44.401,3,3,3,4,2,3,4,4,2,3,3
1185,16:56:44.644,3,3,3,4,2,3,4,4,2,3,3
1186,16:56:44.904,3,3,3,4,2,3,4,4,2,3,3
1187,16:56:45.152,3,3,3,4,2,3,4,4,2,3,3
1188,16:56:45.400,3,3,3,4,2,3,4,4,2,3,3
1189,16:56:45.649,3,3,3,4,2,3,4,4,2,3,3
1190,16:56:45.899,3,3,3,4,2,3,4,4,2,3,3
1191,16:56:46.148,3,3,3,4,2,3,4,4,2,3,3
1192,16:56:46.399,3,3,3,4,2,3,4,4,2,3,3
1193,16:56:46.648,3,3,3,4,2,3,4,4,2,3,3
1194,16:56:46.898,3,3,3,4,2,3,4,4,2,3,3
1195,16:56:47.149,3,3,3,4,2,3,4,4,2,3,3
1196,16:56:47.416,3,3,3,4,2,3,4,4,2,3,3
1197,16:56:47.646,3,3,3,4,2,3,4,4,2,3,3
1198,16:56:47.895,3,3,3,4,2,3,4,4,2,3,3
1199,16:56:48.145,3,3,3,4,2,3,4,4,2,3,3
1200,16:56:48.402,3,3,3,4,2,3,4,4,2,3,3
1201,16:56:48.645,3,3,3,4,2,3,4,4,2,3,3
1202,16:56:48.895,3,3,3,4,2,3,4,4,2,3,3
1203,16:56:49.138,3,3,3,4,2,3,4,4,2,3,3
1204,16:56:49.395,3,3,3,4,2,3,4,4,2,3,3
1205,16:56:49.645,3,3,3,4,2,3,4,4,2,3,3
1206,16:56:49.896,3,3,3,4,2,3,4,4,2,3,3
1207,16:56:50.145,3,3,3,4,2,3,4,4,2,3,3
1208,16:56:50.395,3,3,3,4,2,3,4,4,2,3,3
1209,16:56:50.645,3,3,3,4,2,3,4,4,2,3,3
1210,16:56:50.891,3,3,3,4,2,3,4,4,2,3,3
1211,16:56:51.147,3,3,3,4,2,3,4,4,2,3,3
1212,16:56:51.394,3,3,3,4,2,3,4,4,2,3,3
1213,16:56:51.644,3,3,3,4,2,3,4,4,2,3,3
1214,16:56:51.895,3,3,3,4,2,3,4,4,2,3,3
1215,16:56:52.145,3,3,3,4,2,3,4,4,2,3,3
1216,16:56:52.394,3,3,3,4,2,3,4,4,2,3,3
1217,16:56:52.644,3,3,3,4,2,3,4,4,2,3,3
1218,16:56:52.894,3,3,3,4,2,3,4,4,2,3,3
1219,16:56:53.144,3,3,3,4,2,3,4,4,2,3,3
1220,16:56:53.394,3,3,3,4,2,3,4,4,2,3,3
1221,16:56:53.644,3,3,3,4,2,3,4,4,2,3,3
1222,16:56:53.894,3,3,3,4,2,3,4,4,2,3,3
1223,16:56:54.143,3,3,3,4,2,3,4,4,2,3,3
1224,16:56:54.393,3,3,3,4,2,3,4,4,2,3,3
1225,16:56:54.644,3,3,3,4,2,3,4,4,2,3,3
1226,16:56:54.892,3,3,3,4,2,3,4,4,2,3,3
1227,16:56:55.141,3,3,3,4,2,3,4,4,2,3,3
1228,16:56:55.392,3,3,3,4,2,3,4,4,2,3,3
1229,16:56:55.642,3,3,3,4,2,3,4,4,2,3,3
1230,16:56:55.883,3,3,3,4,2,3,4,4,2,3,3
1231,16:56:56.142,3,3,3,4,2,3,4,4,2,3,3
1232,16:56:56.392,3,3,3,4,2,3,4,4,2,3,3
1233,16:56:56.641,3,3,3,4,2,3,4,4,2,3,3
1234,16:56:56.891,3,3,3,4,2,3,4,4,2,3,3
1235,16:56:57.141,3,3,3,4,2,3,4,4,2,3,3
1236,16:56:57.391,3,3,3,4,2,3,4,4,2,3,3
1237,16:56:57.634,3,3,3,4,2,3,4,4,2,3,3
1238,16:56:57.894,3,3,3,4,2,3,4,4,2,3,3
1239,16:56:58.138,3,3,3,4,2,3,4,4,2,3,3
1240,16:56:58.389,3,3,3,4,2,3,4,4,2,3,3
1241,16:56:58.637,3,3,3,4,2,3,4,4,2,3,3
1242,16:56:58.887,3,3,3,4,2,3,4,4,2,3,3
1243,16:56:59.137,3,3,3,4,2,3,4,4,2,3,3
1244,16:56:59.388,3,3,3,4,2,3,4,4,2,3,3
1245,16:56:59.643,3,3,3,4,2,3,4,4,2,3,3
1246,16:56:59.887,3,3,3,4,2,3,4,4,2,3,3
1247,16:57:00.136,3,3,3,4,2,3,4,4,2,3,3
1248,16:57:00.387,3,3,3,4,2,3,4,4,2,3,3
1249,16:57:00.636,3,3,3,4,2,3,4,4,2,3,3
1250,16:57:00.886,3,3,3,4,2,3,4,4,2,3,3
1251,16:57:01.137,3,3,3,4,2,3,4,4,2,3,3
1252,16:57:01.387,3,3,3,4,2,3,4,4,2,3,3
1253,16:57:01.636,3,3,3,4,2,3,4,4,2,3,3
1254,16:57:01.886,3,3,3,4,2,3,4,4,2,3,3
1255,16:57:02.137,3,3,3,4,2,3,4,4,2,3,3
1256,16:57:02.388,3,3,3,4,2,3,4,4,2,3,3
1257,16:57:02.641,3,3,3,4,2,3,4,4,2,3,3
1258,16:57:02.881,3,3,3,4,2,3,4,4,2,3,3
1259,16:57:03.139,3,3,3,4,2,3,4,4,2,3,3
1260,16:57:03.385,3,3,3,4,2,3,4,4,2,3,3
1261,16:57:03.636,3,3,3,4,2,3,4,4,2,3,3
1262,16:57:03.886,3,3,3,4,2,3,4,4,2,3,3
1263,16:57:04.135,3,3,3,4,2,3,4,4,2,3,3
1264,16:57:04.393,3,3,3,4,2,3,4,4,2,3,3
1265,16:57:04.635,3,3,3,4,2,3,4,4,2,3,3
1266,16:57:04.885,3,3,3,4,2,3,4,4,2,3,3
1267,16:57:05.135,3,3,3,4,2,3,4,4,2,3,3
1268,16:57:05.387,3,3,3,4,2,3,4,4,2,3,3
1269,16:57:05.635,3,3,3,4,2,3,4,4,2,3,3
1270,16:57:05.885,3,3,3,4,2,3,4,4,2,3,3
1271,16:57:06.135,3,3,3,4,2,3,4,4,2,3,3
1272,16:57:06.385,3,3,3,4,2,3,4,4,2,3,3
1273,16:57:06.634,3,3,3,4,2,3,4,4,2,3,3
1274,16:57:06.884,3,3,3,4,2,3,4,4,2,3,3
1275,16:57:07.133,3,3,3,4,2,3,4,4,2,3,3
1276,16:57:07.382,3,3,3,4,2,3,4,4,2,3,3
1277,16:57:07.634,3,3,3,4,2,3,4,4,2,3,3
1278,16:57:07.911,3,3,3,4,2,3,4,4,2,3,3
1279,16:57:08.132,3,3,3,4,2,3,4,4,2,3,3
1280,16:57:08.383,3,3,3,4,2,3,4,4,2,3,3
1281,16:57:08.643,3,3,3,4,2,3,4,4,2,3,3
1282,16:57:08.883,3,3,3,4,2,3,4,4,2,3,3
1283,16:57:09.132,3,3,3,4,2,3,4,4,2,3,3
1284,16:57:09.382,3,3,3,4,2,3,4,4,2,3,3
1285,16:57:09.632,3,3,3,4,2,3,4,4,2,3,3
1286,16:57:09.882,3,3,3,4,2,3,4,4,2,3,3
1287,16:57:10.131,3,3,3,4,2,3,4,4,2,3,3
1288,16:57:10.382,3,3,3,4,2,3,4,4,2,3,3
1289,16:57:10.634,3,3,3,4,2,3,4,4,2,3,3
1290,16:57:10.881,3,3,3,4,2,3,4,4,2,3,3
1291,16:57:11.131,3,3,3,4,2,3,4,4,2,3,3
1292,16:57:11.406,3,3,3,4,2,3,4,4,2,3,3
1293,16:57:11.630,3,3,3,4,2,3,4,4,2,3,3
1294,16:57:11.880,3,3,3,4,2,3,4,4,2,3,3
1295,16:57:12.129,3,3,3,4,2,3,4,4,2,3,3
1296,16:57:12.383,3,3,3,4,2,3,4,4,2,3,3
1297,16:57:12.629,3,3,3,4,2,3,4,4,2,3,3
1298,16:57:12.879,3,3,3,4,2,3,4,4,2,3,3
1299,16:57:13.129,3,3,3,4,2,3,4,4,2,3,3
1300,16:57:13.380,3,3,3,4,2,3,4,4,2,3,3
1301,16:57:13.629,3,3,3,4,2,3,4,4,2,3,3
1302,16:57:13.882,3,3,3,4,2,3,4,4,2,3,3
1303,16:57:14.129,3,3,3,4,2,3,4,4,2,3,3
1304,16:57:14.378,3,3,3,4,2,3,4,4,2,3,3
1305,16:57:14.629,3,3,3,4,2,3,4,4,2,3,3
1306,16:57:14.879,3,3,3,4,2,3,4,4,2,3,3
1307,16:57:15.128,3,3,3,4,2,3,4,4,2,3,3
1308,16:57:15.380,3,3,3,4,2,3,4,4,2,3,3
1309,16:57:15.625,3,3,3,4,2,3,4,4,2,3,3
1310,16:57:15.879,3,3,3,4,2,3,4,4,2,3,3
1311,16:57:16.127,3,3,3,4,2,3,4,4,2,3,3
1312,16:57:16.378,3,3,3,4,2,3,4,4,2,3,3
1313,16:57:16.635,3,3,3,4,2,3,4,4,2,3,3
1314,16:57:16.876,3,3,3,4,2,3,4,4,2,3,3
1315,16:57:17.128,3,3,3,4,2,3,4,4,2,3,3
1316,16:57:17.376,3,3,3,4,2,3,4,4,2,3,3
1317,16:57:17.629,3,3,3,4,2,3,4,4,2,3,3
1318,16:57:17.876,3,3,3,4,2,3,4,4,2,3,3
1319,16:57:18.128,3,3,3,4,2,3,4,4,2,3,3
1320,16:57:18.376,3,3,3,4,2,3,4,4,2,3,3
1321,16:57:18.626,3,3,3,4,2,3,4,4,2,3,3
1322,16:57:18.877,3,3,3,4,2,3,4,4,2,3,3
1323,16:57:19.126,3,3,3,4,2,3,4,4,2,3,3
1324,16:57:19.375,3,3,3,4,2,3,4,4,2,3,3
1325,16:57:19.638,3,3,3,4,2,3,4,4,2,3,3
1326,16:57:19.879,3,3,3,4,2,3,4,4,2,3,3
1327,16:57:20.126,3,3,3,4,2,3,4,4,2,3,3
1328,16:57:20.375,3,3,3,4,2,3,4,4,2,3,3
1329,16:57:20.625,3,3,3,4,2,3,4,4,2,3,3
1330,16:57:20.875,3,3,3,4,2,3,4,4,2,3,3
1331,16:57:21.125,3,3,3,4,2,3,4,4,2,3,3
1332,16:57:21.375,3,3,3,4,2,3,4,4,2,3,3
1333,16:57:21.625,3,3,3,4,2,3,4,4,2,3,3
1334,16:57:21.869,3,3,3,4,2,3,4,4,2,3,3
1335,16:57:22.122,3,3,3,4,2,3,4,4,2,3,3
1336,16:57:22.372,3,3,3,4,2,3,4,4,2,3,3
1337,16:57:22.638,3,3,3,4,2,3,4,4,2,3,3
1338,16:57:22.872,3,3,3,4,2,3,4,4,2,3,3
1339,16:57:23.122,3,3,3,4,2,3,4,4,2,3,3
1340,16:57:23.377,3,3,3,4,2,3,4,4,2,3,3
1341,16:57:23.623,3,3,3,4,2,3,4,4,2,3,3
1342,16:57:23.878,3,3,3,4,2,3,4,4,2,3,3
1343,16:57:24.122,3,3,3,4,2,3,4,4,2,3,3
1344,16:57:24.372,3,3,3,4,2,3,4,4,2,3,3
1345,16:57:24.622,3,3,3,4,2,3,4,4,2,3,3
1346,16:57:24.866,3,3,3,4,2,3,4,4,2,3,3
1347,16:57:25.121,3,3,3,4,2,3,4,4,2,3,3
1348,16:57:25.371,3,3,3,4,2,3,4,4,2,3,3
1349,16:57:25.619,3,3,3,4,2,3,4,4,2,3,3
1350,16:57:25.870,3,3,3,4,2,3,4,4,2,3,3
1351,16:57:26.119,3,3,3,4,2,3,4,4,2,3,3
1352,16:57:26.362,3,3,3,4,2,3,4,4,2,3,3
1353,16:57:26.619,3,3,3,4,2,3,4,4,2,3,3
1354,16:57:26.869,3,3,3,4,2,3,4,4,2,3,3
1355,16:57:27.118,3,3,3,4,2,3,4,4,2,3,3
1356,16:57:27.368,3,3,3,4,2,3,4,4,2,3,3
1357,16:57:27.617,3,3,3,4,2,3,4,4,2,3,3
1358,16:57:27.867,3,3,3,4,2,3,4,4,2,3,3
1359,16:57:28.119,3,3,3,4,2,3,4,4,2,3,3
1360,16:57:28.367,3,3,3,4,2,3,4,4,2,3,3
1361,16:57:28.620,3,3,3,4,2,3,4,4,2,3,3
1362,16:57:28.869,3,3,3,4,2,3,4,4,2,3,3
1363,16:57:29.110,3,3,3,4,2,3,4,4,2,3,3
1364,16:57:29.367,3,3,3,4,2,3,4,4,2,3,3
1365,16:57:29.618,3,3,3,4,2,3,4,4,2,3,3
1366,16:57:29.868,3,3,3,4,2,3,4,4,2,3,3
1367,16:57:30.128,3,3,3,4,2,3,4,4,2,3,3
1368,16:57:30.368,3,3,3,4,2,3,4,4,2,3,3
1369,16:57:30.618,3,3,3,4,2,3,4,4,2,3,3
1370,16:57:30.868,3,3,3,4,2,3,4,4,2,3,3
1371,16:57:31.118,3,3,3,4,2,3,4,4,2,3,3
1372,16:57:31.367,3,3,3,4,2,3,4,4,2,3,3
1373,16:57:31.616,3,3,3,4,2,3,4,4,2,3,3
1374,16:57:31.865,3,3,3,4,2,3,4,4,2,3,3
1375,16:57:32.116,3,3,3,4,2,3,4,4,2,3,3
1376,16:57:32.368,3,3,3,4,2,3,4,4,2,3,3
1377,16:57:32.617,3,3,3,4,2,3,4,4,2,3,3
1378,16:57:32.865,3,3,3,4,2,3,4,4,2,3,3
1379,16:57:33.115,3,3,3,4,2,3,4,4,2,3,3
1380,16:57:33.365,3,3,3,4,2,3,4,4,2,3,3
1381,16:57:33.615,3,3,3,4,2,3,4,4,2,3,3
1382,16:57:33.865,3,3,3,4,2,3,4,4,2,3,3
1383,16:57:34.114,3,3,3,4,2,3,4,4,2,3,3
1384,16:57:34.364,3,3,3,4,2,3,4,4,2,3,3
1385,16:57:34.614,3,3,3,4,2,3,4,4,2,3,3
1386,16:57:34.865,3,3,3,4,2,3,4,4,2,3,3
1387,16:57:35.115,3,3,3,4,2,3,4,4,2,3,3
1388,16:57:35.363,3,3,3,4,2,3,4,4,2,3,3
1389,16:57:35.613,3,3,3,4,2,3,4,4,2,3,3
1390,16:57:35.863,3,3,3,4,2,3,4,4,2,3,3
1391,16:57:36.116,3,3,3,4,2,3,4,4,2,3,3
1392,16:57:36.364,3,3,3,4,2,3,4,4,2,3,3
1393,16:57:36.613,3,3,3,4,2,3,4,4,2,3,3
1394,16:57:36.876,3,3,3,4,2,3,4,4,2,3,3
1395,16:57:37.126,3,3,3,4,2,3,4,4,2,3,3
1396,16:57:37.361,3,3,3,4,2,3,4,4,2,3,3
1397,16:57:37.613,3,3,3,4,2,3,4,4,2,3,3
1398,16:57:37.865,3,3,3,4,2,3,4,4,2,3,3
1399,16:57:38.113,3,3,3,4,2,3,4,4,2,3,3
1400,16:57:38.362,3,3,3,4,2,3,4,4,2,3,3
1401,16:57:38.612,3,3,3,4,2,3,4,4,2,3,3
1402,16:57:38.862,3,3,3,4,2,3,4,4,2,3,3
1403,16:57:39.112,3,3,3,4,2,3,4,4,2,3,3
1404,16:57:39.361,3,3,3,4,2,3,4,4,2,3,3
1405,16:57:39.611,3,3,3,4,2,3,4,4,2,3,3
1406,16:57:39.862,3,3,3,4,2,3,4,4,2,3,3
1407,16:57:40.113,3,3,3,4,2,3,4,4,2,3,3
1408,16:57:40.359,3,3,3,4,2,3,4,4,2,3,3
1409,16:57:40.609,3,3,3,4,2,3,4,4,2,3,3
1410,16:57:40.858,3,3,3,4,2,3,4,4,2,3,3
1411,16:57:41.107,3,3,3,4,2,3,4,4,2,3,3
1412,16:57:41.358,3,3,3,4,2,3,4,4,2,3,3
1413,16:57:41.614,3,3,3,4,2,3,4,4,2,3,3
1414,16:57:41.860,3,3,3,4,2,3,4,4,2,3,3
1415,16:57:42.108,3,3,3,4,2,3,4,4,2,3,3
1416,16:57:42.361,3,3,3,4,2,3,4,4,2,3,3
1417,16:57:42.609,3,3,3,4,2,3,4,4,2,3,3
1418,16:57:42.858,3,3,3,4,2,3,4,4,2,3,3
1419,16:57:43.108,3,3,3,4,2,3,4,4,2,3,3
1420,16:57:43.359,3,3,3,4,2,3,4,4,2,3,3
1421,16:57:43.608,3,3,3,4,2,3,4,4,2,3,3
1422,16:57:43.861,3,3,3,4,2,3,4,4,2,3,3
1423,16:57:44.110,3,3,3,4,2,3,4,4,2,3,3
1424,16:57:44.358,3,3,3,4,2,3,4,4,2,3,3
1425,16:57:44.608,3,3,3,4,2,3,4,4,2,3,3
1426,16:57:44.857,3,3,3,4,2,3,4,4,2,3,3
1427,16:57:45.107,3,3,3,4,2,3,4,4,2,3,3
1428,16:57:45.359,3,3,3,4,2,3,4,4,2,3,3
1429,16:57:45.608,3,3,3,4,2,3,4,4,2,3,3
1430,16:57:45.857,3,3,3,4,2,3,4,4,2,3,3
1431,16:57:46.105,3,3,3,4,2,3,4,4,2,3,3
1432,16:57:46.355,3,3,3,4,2,3,4,4,2,3,3
1433,16:57:46.616,3,3,3,4,2,3,4,4,2,3,3
1434,16:57:46.854,3,3,3,4,2,3,4,4,2,3,3
1435,16:57:47.103,3,3,3,4,2,3,4,4,2,3,3
1436,16:57:47.353,3,3,3,4,2,3,4,4,2,3,3
1437,16:57:47.603,3,3,3,4,2,3,4,4,2,3,3
1438,16:57:47.854,3,3,3,4,2,3,4,4,2,3,3
1439,16:57:48.103,3,3,3,4,2,3,4,4,2,3,3
1440,16:57:48.354,3,3,3,4,2,3,4,4,2,3,3
1441,16:57:48.604,3,3,3,4,2,3,4,4,2,3,3
1442,16:57:48.853,3,3,3,4,2,3,4,4,2,3,3
1443,16:57:49.104,3,3,3,4,2,3,4,4,2,3,3
1444,16:57:49.353,3,3,3,4,2,3,4,4,2,3,3
1445,16:57:49.602,3,3,3,4,2,3,4,4,2,3,3
1446,16:57:49.853,3,3,3,4,2,3,4,4,2,3,3
1447,16:57:50.103,3,3,3,4,2,3,4,4,2,3,3
1448,16:57:50.352,3,3,3,4,2,3,4,4,2,3,3
1449,16:57:50.602,3,3,3,4,2,3,4,4,2,3,3
1450,16:57:50.853,3,3,3,4,2,3,4,4,2,3,3
1451,16:57:51.128,3,3,3,4,2,3,4,4,2,3,3
1452,16:57:51.351,3,3,3,4,2,3,4,4,2,3,3
1453,16:57:51.601,3,3,3,4,2,3,4,4,2,3,3
1454,16:57:51.852,3,3,3,4,2,3,4,4,2,3,3
1455,16:57:52.103,3,3,3,4,2,3,4,4,2,3,3
1456,16:57:52.352,3,3,3,4,2,3,4,4,2,3,3
1457,16:57:52.601,3,3,3,4,2,3,4,4,2,3,3
1458,16:57:52.852,3,3,3,4,2,3,4,4,2,3,3
1459,16:57:53.104,3,3,3,4,2,3,4,4,2,3,3
1460,16:57:53.351,3,3,3,4,2,3,4,4,2,3,3
1461,16:57:53.604,3,3,3,4,2,3,4,4,2,3,3
1462,16:57:53.852,3,3,3,4,2,3,4,4,2,3,3
1463,16:57:54.102,3,3,3,4,2,3,4,4,2,3,3
1464,16:57:54.353,3,3,3,4,2,3,4,4,2,3,3
1465,16:57:54.625,3,3,3,4,2,3,4,4,2,3,3
1466,16:57:54.850,3,3,3,4,2,3,4,4,2,3,3
1467,16:57:55.101,3,3,3,4,2,3,4,4,2,3,3
1468,16:57:55.354,3,3,3,4,2,3,4,4,2,3,3
1469,16:57:55.600,3,3,3,4,2,3,4,4,2,3,3
1470,16:57:55.850,3,3,3,4,2,3,4,4,2,3,3
1471,16:57:56.100,3,3,3,4,2,3,4,4,2,3,3
1472,16:57:56.350,3,3,3,4,2,3,4,4,2,3,3
1473,16:57:56.600,3,3,3,4,2,3,4,4,2,3,3
1474,16:57:56.865,3,3,3,4,2,3,4,4,2,3,3
1475,16:57:57.101,3,3,3,4,2,3,4,4,2,3,3
1476,16:57:57.349,3,3,3,4,2,3,4,4,2,3,3
1477,16:57:57.597,3,3,3,4,2,3,4,4,2,3,3
1478,16:57:57.847,3,3,3,4,2,3,4,4,2,3,3
1479,16:57:58.096,3,3,3,4,2,3,4,4,2,3,3
1480,16:57:58.346,3,3,3,4,2,3,4,4,2,3,3
1481,16:57:58.597,3,3,3,4,2,3,4,4,2,3,3
1482,16:57:58.846,3,3,3,4,2,3,4,4,2,3,3
1483,16:57:59.097,3,3,3,4,2,3,4,4,2,3,3
1484,16:57:59.351,3,3,3,4,2,3,4,4,2,3,3
1485,16:57:59.600,3,3,3,4,2,3,4,4,2,3,3
1486,16:57:59.846,3,3,3,4,2,3,4,4,2,3,3
1487,16:58:00.099,3,3,3,4,2,3,4,4,2,3,3
1488,16:58:00.347,3,3,3,4,2,3,4,4,2,3,3
1489,16:58:00.596,3,3,3,4,2,3,4,4,2,3,3
1490,16:58:00.845,3,3,3,4,2,3,4,4,2,3,3
1491,16:58:01.097,3,3,3,4,2,3,4,4,2,3,3
1492,16:58:01.370,3,3,3,4,2,3,4,4,2,3,3
1493,16:58:01.595,3,3,3,4,2,3,4,4,2,3,3
1494,16:58:01.844,3,3,3,4,2,3,4,4,2,3,3
1495,16:58:02.094,3,3,3,4,2,3,4,4,2,3,3
1496,16:58:02.344,3,3,3,4,2,3,4,4,2,3,3
1497,16:58:02.594,3,3,3,4,2,3,4,4,2,3,3
1498,16:58:02.845,3,3,3,4,2,3,4,4,2,3,3
1499,16:58:03.095,3,3,3,4,2,3,4,4,2,3,3
1500,16:58:03.345,3,3,3,4,2,3,4,4,2,3,3
1501,16:58:03.595,3,3,3,4,2,3,4,4,2,3,3
1502,16:58:03.844,3,3,3,4,2,3,4,4,2,3,3
1503,16:58:04.094,3,3,3,4,2,3,4,4,2,3,3
1504,16:58:04.343,3,3,3,4,2,3,4,4,2,3,3
1505,16:58:04.593,3,3,3,4,2,3,4,4,2,3,3
1506,16:58:04.843,3,3,3,4,2,3,4,4,2,3,3
1507,16:58:05.093,3,3,3,4,2,3,4,4,2,3,3
1508,16:58:05.343,3,3,3,4,2,3,4,4,2,3,3
1509,16:58:05.594,3,3,3,4,2,3,4,4,2,3,3
1510,16:58:05.842,3,3,3,4,2,3,4,4,2,3,3
1511,16:58:06.094,3,3,3,4,2,3,4,4,2,3,3
1512,16:58:06.344,3,3,3,4,2,3,4,4,2,3,3
1513,16:58:06.586,3,3,3,4,2,3,4,4,2,3,3
1514,16:58:06.840,3,3,3,4,2,3,4,4,2,3,3
1515,16:58:07.090,3,3,3,4,2,3,4,4,2,3,3
1516,16:58:07.341,3,3,3,4,2,3,4,4,2,3,3
1517,16:58:07.589,3,3,3,4,2,3,4,4,2,3,3
1518,16:58:07.841,3,3,3,4,2,3,4,4,2,3,3
1519,16:58:08.089,3,3,3,4,2,3,4,4,2,3,3
1520,16:58:08.338,3,3,3,4,2,3,4,4,2,3,3
1521,16:58:08.590,3,3,3,4,2,3,4,4,2,3,3
1522,16:58:08.838,3,3,3,4,2,3,4,4,2,3,3
1523,16:58:09.088,3,3,3,4,2,3,4,4,2,3,3
1524,16:58:09.338,3,3,3,4,2,3,4,4,2,3,3
1525,16:58:09.589,3,3,3,4,2,3,4,4,2,3,3
1526,16:58:09.844,3,3,3,4,2,3,4,4,2,3,3
1527,16:58:10.087,3,3,3,4,2,3,4,4,2,3,3
1528,16:58:10.339,3,3,3,4,2,3,4,4,2,3,3
1529,16:58:10.627,3,3,3,4,2,3,4,4,2,3,3
1530,16:58:50.879,1,2,2,3,2,1,2,2,3,1,1
1531,16:58:51.135,1,2,2,3,2,1,2,2,3,1,1
1532,16:58:51.377,1,2,2,3,2,1,2,2,3,1,1
1533,16:58:51.626,1,2,2,3,2,1,2,2,3,1,1
1534,16:58:51.879,1,2,2,3,2,1,2,2,3,1,1
1535,16:58:52.127,1,2,2,3,2,1,2,2,3,1,1
1536,16:58:52.377,1,2,2,3,2,1,2,2,3,1,1
1537,16:58:52.628,1,2,2,3,2,1,2,2,3,1,1
1538,16:58:52.879,1,2,2,3,2,1,2,2,3,1,1
1539,16:58:53.126,1,2,2,3,2,1,2,2,3,1,1
1540,16:58:53.402,1,2,2,3,2,1,2,2,3,1,1
1541,16:58:53.626,1,2,2,3,2,1,2,2,3,1,1
1542,16:58:53.875,1,2,2,3,2,1,2,2,3,1,1
1543,16:58:54.125,1,2,2,3,2,1,2,2,3,1,1
1544,16:58:54.374,1,2,2,3,2,1,2,2,3,1,1
1545,16:58:54.624,1,2,2,3,2,1,2,2,3,1,1
1546,16:58:54.875,1,2,2,3,2,1,2,2,3,1,1
1547,16:58:55.126,1,2,2,3,2,1,2,2,3,1,1
1548,16:58:55.376,1,2,2,3,2,1,2,2,3,1,1
1549,16:58:55.624,1,2,2,3,2,1,2,2,3,1,1
1550,16:58:55.875,1,2,2,3,2,1,2,2,3,1,1
1551,16:58:56.124,1,2,2,3,2,1,2,2,3,1,1
1552,16:58:56.374,1,2,2,3,2,1,2,2,3,1,1
1553,16:58:56.624,1,2,2,3,2,1,2,2,3,1,1
1554,16:58:56.873,1,2,2,3,2,1,2,2,3,1,1
1555,16:58:57.124,1,2,2,3,2,1,2,2,3,1,1
1556,16:58:57.374,1,2,2,3,2,1,2,2,3,1,1
1557,16:58:57.623,1,2,2,3,2,1,2,2,3,1,1
1558,16:58:57.873,1,2,2,3,2,1,2,2,3,1,1
1559,16:58:58.121,1,2,2,3,2,1,2,2,3,1,1
1560,16:58:58.372,1,2,2,3,2,1,2,2,3,1,1
1561,16:58:58.623,1,2,2,3,2,1,2,2,3,1,1
1562,16:58:58.872,1,2,2,3,2,1,2,2,3,1,1
1563,16:58:59.122,1,2,2,3,2,1,2,2,3,1,1
1564,16:58:59.373,1,2,2,3,2,1,2,2,3,1,1
1565,16:58:59.621,1,2,2,3,2,1,2,2,3,1,1
1566,16:58:59.871,1,2,2,3,2,1,2,2,3,1,1
1567,16:59:00.120,1,2,2,3,2,1,2,2,3,1,1
1568,16:59:00.369,1,2,2,3,2,1,2,2,3,1,1
1569,16:59:00.623,1,2,2,3,2,1,2,2,3,1,1
1570,16:59:00.872,1,2,2,3,2,1,2,2,3,1,1
1571,16:59:01.121,1,2,2,3,2,1,2,2,3,1,1
1572,16:59:01.371,1,2,2,3,2,1,2,2,3,1,1
1573,16:59:01.621,1,2,2,3,2,1,2,2,3,1,1
1574,16:59:01.866,1,2,2,3,2,1,2,2,3,1,1
1575,16:59:02.121,1,2,2,3,2,1,2,2,3,1,1
1576,16:59:02.370,1,2,2,3,2,1,2,2,3,1,1
1577,16:59:02.620,1,2,2,3,2,1,2,2,3,1,1
1578,16:59:02.873,1,2,2,3,2,1,2,2,3,1,1
1579,16:59:03.120,1,2,2,3,2,1,2,2,3,1,1
1580,16:59:03.370,1,2,2,3,2,1,2,2,3,1,1
1581,16:59:03.619,1,2,2,3,2,1,2,2,3,1,1
1582,16:59:03.870,1,2,2,3,2,1,2,2,3,1,1
1583,16:59:04.119,1,2,2,3,2,1,2,2,3,1,1
1584,16:59:04.361,1,2,2,3,2,1,2,2,3,1,1
1585,16:59:04.619,1,2,2,3,2,1,2,2,3,1,1
1586,16:59:04.870,1,2,2,3,2,1,2,2,3,1,1
1587,16:59:05.120,1,2,2,3,2,1,2,2,3,1,1
1588,16:59:05.368,1,2,2,3,2,1,2,2,3,1,1
1589,16:59:05.619,1,2,2,3,2,1,2,2,3,1,1
1590,16:59:05.868,1,2,2,3,2,1,2,2,3,1,1
1591,16:59:06.118,1,2,2,3,2,1,2,2,3,1,1
1592,16:59:06.368,1,2,2,3,2,1,2,2,3,1,1
1593,16:59:06.617,1,2,2,3,2,1,2,2,3,1,1
1594,16:59:06.867,1,2,2,3,2,1,2,2,3,1,1
1595,16:59:07.118,1,2,2,3,2,1,2,2,3,1,1
1596,16:59:07.367,1,2,2,3,2,1,2,2,3,1,1
1597,16:59:07.617,1,2,2,3,2,1,2,2,3,1,1
1598,16:59:07.860,1,2,2,3,2,1,2,2,3,1,1
1599,16:59:08.118,1,2,2,3,2,1,2,2,3,1,1
1600,16:59:08.368,1,2,2,3,2,1,2,2,3,1,1
1601,16:59:08.617,1,2,2,3,2,1,2,2,3,1,1
1602,16:59:08.865,1,2,2,3,2,1,2,2,3,1,1
1603,16:59:09.114,1,2,2,3,2,1,2,2,3,1,1
1604,16:59:09.366,1,2,2,3,2,1,2,2,3,1,1
1605,16:59:09.616,1,2,2,3,2,1,2,2,3,1,1
1606,16:59:09.864,1,2,2,3,2,1,2,2,3,1,1
1607,16:59:10.115,1,2,2,3,2,1,2,2,3,1,1
1608,16:59:10.365,1,2,2,3,2,1,2,2,3,1,1
1609,16:59:10.617,1,2,2,3,2,1,2,2,3,1,1
1610,16:59:10.866,1,2,2,3,2,1,2,2,3,1,1
1611,16:59:11.115,1,2,2,3,2,1,2,2,3,1,1
1612,16:59:11.364,1,2,2,3,2,1,2,2,3,1,1
1613,16:59:11.614,1,2,2,3,2,1,2,2,3,1,1
1614,16:59:11.865,1,2,2,3,2,1,2,2,3,1,1
1615,16:59:12.114,1,2,2,3,2,1,2,2,3,1,1
1616,16:59:12.364,1,2,2,3,2,1,2,2,3,1,1
1617,16:59:12.613,1,2,2,3,2,1,2,2,3,1,1
1618,16:59:12.889,1,2,2,3,2,1,2,2,3,1,1
1619,16:59:13.114,1,2,2,3,2,1,2,2,3,1,1
1620,16:59:13.363,1,2,2,3,2,1,2,2,3,1,1
1621,16:59:13.613,1,2,2,3,2,1,2,2,3,1,1
1622,16:59:13.863,1,2,2,3,2,1,2,2,3,1,1
1623,16:59:14.113,1,2,2,3,2,1,2,2,3,1,1
1624,16:59:14.361,1,2,2,3,2,1,2,2,3,1,1
1625,16:59:14.612,1,2,2,3,2,1,2,2,3,1,1
1626,16:59:14.861,1,2,2,3,2,1,2,2,3,1,1
1627,16:59:15.112,1,2,2,3,2,1,2,2,3,1,1
1628,16:59:15.361,1,2,2,3,2,1,2,2,3,1,1
1629,16:59:15.611,1,2,2,3,2,1,2,2,3,1,1
1630,16:59:15.860,1,2,2,3,2,1,2,2,3,1,1
1631,16:59:16.111,1,2,2,3,2,1,2,2,3,1,1
1632,16:59:16.360,1,2,2,3,2,1,2,2,3,1,1
1633,16:59:16.609,1,2,2,3,2,1,2,2,3,1,1
1634,16:59:16.861,1,2,2,3,2,1,2,2,3,1,1
1635,16:59:17.110,1,2,2,3,2,1,2,2,3,1,1
1636,16:59:17.361,1,2,2,3,2,1,2,2,3,1,1
1637,16:59:17.610,1,2,2,3,2,1,2,2,3,1,1
1638,16:59:17.862,1,2,2,3,2,1,2,2,3,1,1
1639,16:59:18.110,1,2,2,3,2,1,2,2,3,1,1
1640,16:59:18.360,1,2,2,3,2,1,2,2,3,1,1
1641,16:59:18.610,1,2,2,3,2,1,2,2,3,1,1
1642,16:59:18.859,1,2,2,3,2,1,2,2,3,1,1
1643,16:59:19.110,1,2,2,3,2,1,2,2,3,1,1
1644,16:59:19.361,1,2,2,3,2,1,2,2,3,1,1
1645,16:59:19.609,1,2,2,3,2,1,2,2,3,1,1
1646,16:59:19.857,1,2,2,3,2,1,2,2,3,1,1
1647,16:59:20.109,1,2,2,3,2,1,2,2,3,1,1
1648,16:59:20.359,1,2,2,3,2,1,2,2,3,1,1
1649,16:59:20.606,1,2,2,3,2,1,2,2,3,1,1
1650,16:59:20.865,1,2,2,3,2,1,2,2,3,1,1
1651,16:59:21.109,1,2,2,3,2,1,2,2,3,1,1
1652,16:59:21.359,1,2,2,3,2,1,2,2,3,1,1
1653,16:59:21.607,1,2,2,3,2,1,2,2,3,1,1
1654,16:59:21.857,1,2,2,3,2,1,2,2,3,1,1
1655,16:59:22.106,1,2,2,3,2,1,2,2,3,1,1
1656,16:59:22.357,1,2,2,3,2,1,2,2,3,1,1
1657,16:59:22.607,1,2,2,3,2,1,2,2,3,1,1
1658,16:59:22.857,1,2,2,3,2,1,2,2,3,1,1
1659,16:59:23.104,1,2,2,3,2,1,2,2,3,1,1
1660,16:59:23.356,1,2,2,3,2,1,2,2,3,1,1
1661,16:59:23.607,1,2,2,3,2,1,2,2,3,1,1
1662,16:59:23.854,1,2,2,3,2,1,2,2,3,1,1
1663,16:59:24.103,1,2,2,3,2,1,2,2,3,1,1
1664,16:59:24.355,1,2,2,3,2,1,2,2,3,1,1
1665,16:59:24.604,1,2,2,3,2,1,2,2,3,1,1
1666,16:59:24.854,1,2,2,3,2,1,2,2,3,1,1
1667,16:59:25.105,1,2,2,3,2,1,2,2,3,1,1
1668,16:59:25.345,1,2,2,3,2,1,2,2,3,1,1
1669,16:59:25.607,1,2,2,3,2,1,2,2,3,1,1
1670,16:59:25.855,1,2,2,3,2,1,2,2,3,1,1
1671,16:59:26.100,1,2,2,3,2,1,2,2,3,1,1
1672,16:59:26.350,1,2,2,3,2,1,2,2,3,1,1
1673,16:59:26.602,1,2,2,3,2,1,2,2,3,1,1
1674,16:59:26.852,1,2,2,3,2,1,2,2,3,1,1
1675,16:59:27.100,1,2,2,3,2,1,2,2,3,1,1
1676,16:59:27.352,1,2,2,3,2,1,2,2,3,1,1
1677,16:59:27.601,1,2,2,3,2,1,2,2,3,1,1
1678,16:59:27.854,1,2,2,3,2,1,2,2,3,1,1
1679,16:59:28.100,1,2,2,3,2,1,2,2,3,1,1
1680,16:59:28.357,1,2,2,3,2,1,2,2,3,1,1
1681,16:59:28.606,1,2,2,3,2,1,2,2,3,1,1
1682,16:59:28.853,1,2,2,3,2,1,2,2,3,1,1
1683,16:59:29.103,1,2,2,3,2,1,2,2,3,1,1
1684,16:59:29.353,1,2,2,3,2,1,2,2,3,1,1
1685,16:59:29.603,1,2,2,3,2,1,2,2,3,1,1
1686,16:59:29.850,1,2,2,3,2,1,2,2,3,1,1
1687,16:59:30.102,1,2,2,3,2,1,2,2,3,1,1
1688,16:59:30.360,1,2,2,3,2,1,2,2,3,1,1
1689,16:59:30.605,1,2,2,3,2,1,2,2,3,1,1
1690,16:59:30.853,1,2,2,3,2,1,2,2,3,1,1
1691,16:59:31.101,1,2,2,3,2,1,2,2,3,1,1
1692,16:59:31.351,1,2,2,3,2,1,2,2,3,1,1
1693,16:59:31.602,1,2,2,3,2,1,2,2,3,1,1
1694,16:59:31.850,1,2,2,3,2,1,2,2,3,1,1
1695,16:59:32.101,1,2,2,3,2,1,2,2,3,1,1
1696,16:59:32.351,1,2,2,3,2,1,2,2,3,1,1
1697,16:59:32.601,1,2,2,3,2,1,2,2,3,1,1
1698,16:59:32.850,1,2,2,3,2,1,2,2,3,1,1
1699,16:59:33.091,1,2,2,3,2,1,2,2,3,1,1
1700,16:59:33.348,1,2,2,3,2,1,2,2,3,1,1
1701,16:59:33.601,1,2,2,3,2,1,2,2,3,1,1
1702,16:59:33.848,1,2,2,3,2,1,2,2,3,1,1
1703,16:59:34.101,1,2,2,3,2,1,2,2,3,1,1
1704,16:59:34.349,1,2,2,3,2,1,2,2,3,1,1
1705,16:59:34.600,1,2,2,3,2,1,2,2,3,1,1
1706,16:59:34.850,1,2,2,3,2,1,2,2,3,1,1
1707,16:59:35.095,1,2,2,3,2,1,2,2,3,1,1
1708,16:59:35.347,1,2,2,3,2,1,2,2,3,1,1
1709,16:59:35.599,1,2,2,3,2,1,2,2,3,1,1
1710,16:59:35.841,1,2,2,3,2,1,2,2,3,1,1
1711,16:59:36.100,1,2,2,3,2,1,2,2,3,1,1
1712,16:59:36.349,1,2,2,3,2,1,2,2,3,1,1
1713,16:59:36.599,1,2,2,3,2,1,2,2,3,1,1
1714,16:59:36.863,1,2,2,3,2,1,2,2,3,1,1
1715,16:59:37.096,1,2,2,3,2,1,2,2,3,1,1
1716,16:59:37.346,1,2,2,3,2,1,2,2,3,1,1
1717,16:59:37.597,1,2,2,3,2,1,2,2,3,1,1
1718,16:59:37.844,1,2,2,3,2,1,2,2,3,1,1
1719,16:59:38.096,1,2,2,3,2,1,2,2,3,1,1
1720,16:59:38.357,1,2,2,3,2,1,2,2,3,1,1
1721,16:59:38.593,1,2,2,3,2,1,2,2,3,1,1
1722,16:59:38.843,1,2,2,3,2,1,2,2,3,1,1
1723,16:59:39.094,1,2,2,3,2,1,2,2,3,1,1
1724,16:59:39.343,1,2,2,3,2,1,2,2,3,1,1
1725,16:59:39.590,1,2,2,3,2,1,2,2,3,1,1
1726,16:59:39.841,1,2,2,3,2,1,2,2,3,1,1
1727,16:59:40.095,1,2,2,3,2,1,2,2,3,1,1
1728,16:59:40.343,1,2,2,3,2,1,2,2,3,1,1
1729,16:59:40.595,1,2,2,3,2,1,2,2,3,1,1
1730,16:59:40.845,1,2,2,3,2,1,2,2,3,1,1
1731,16:59:41.108,1,2,2,3,2,1,2,2,3,1,1
1732,16:59:41.344,1,2,2,3,2,1,2,2,3,1,1
1733,16:59:41.594,1,2,2,3,2,1,2,2,3,1,1
1734,16:59:41.838,1,2,2,3,2,1,2,2,3,1,1
1735,16:59:42.091,1,2,2,3,2,1,2,2,3,1,1
1736,16:59:42.342,1,2,2,3,2,1,2,2,3,1,1
1737,16:59:42.590,1,2,2,3,2,1,2,2,3,1,1
1738,16:59:42.842,1,2,2,3,2,1,2,2,3,1,1
1739,16:59:43.093,1,2,2,3,2,1,2,2,3,1,1
1740,16:59:43.343,1,2,2,3,2,1,2,2,3,1,1
1741,16:59:43.590,1,2,2,3,2,1,2,2,3,1,1
1742,16:59:43.839,1,2,2,3,2,1,2,2,3,1,1
1743,16:59:44.112,1,2,2,3,2,1,2,2,3,1,1
1744,16:59:44.343,1,2,2,3,2,1,2,2,3,1,1
1745,16:59:44.594,1,2,2,3,2,1,2,2,3,1,1
1746,16:59:44.842,1,2,2,3,2,1,2,2,3,1,1
1747,16:59:45.090,1,2,2,3,2,1,2,2,3,1,1
1748,16:59:45.341,1,2,2,3,2,1,2,2,3,1,1
1749,16:59:45.591,1,2,2,3,2,1,2,2,3,1,1
1750,16:59:45.842,1,2,2,3,2,1,2,2,3,1,1
1751,16:59:46.088,1,2,2,3,2,1,2,2,3,1,1
1752,16:59:46.341,1,2,2,3,2,1,2,2,3,1,1
1753,16:59:46.588,1,2,2,3,2,1,2,2,3,1,1
1754,16:59:46.839,1,2,2,3,2,1,2,2,3,1,1
1755,16:59:47.091,1,2,2,3,2,1,2,2,3,1,1
1756,16:59:47.337,1,2,2,3,2,1,2,2,3,1,1
1757,16:59:47.587,1,2,2,3,2,1,2,2,3,1,1
1758,16:59:47.837,1,2,2,3,2,1,2,2,3,1,1
1759,16:59:48.088,1,2,2,3,2,1,2,2,3,1,1
1760,16:59:48.337,1,2,2,3,2,1,2,2,3,1,1
1761,16:59:48.586,1,2,2,3,2,1,2,2,3,1,1
1762,16:59:48.846,1,2,2,3,2,1,2,2,3,1,1
1763,16:59:49.087,1,2,2,3,2,1,2,2,3,1,1
1764,16:59:49.336,1,2,2,3,2,1,2,2,3,1,1
1765,16:59:49.586,1,2,2,3,2,1,2,2,3,1,1
1766,16:59:49.837,1,2,2,3,2,1,2,2,3,1,1
1767,16:59:50.087,1,2,2,3,2,1,2,2,3,1,1
1768,16:59:50.336,1,2,2,3,2,1,2,2,3,1,1
1769,16:59:50.588,1,2,2,3,2,1,2,2,3,1,1
1770,16:59:50.855,1,2,2,3,2,1,2,2,3,1,1
1771,16:59:51.077,1,2,2,3,2,1,2,2,3,1,1
1772,16:59:51.334,1,2,2,3,2,1,2,2,3,1,1
1773,16:59:51.583,1,2,2,3,2,1,2,2,3,1,1
1774,16:59:51.836,1,2,2,3,2,1,2,2,3,1,1
1775,16:59:52.089,1,2,2,3,2,1,2,2,3,1,1
1776,16:59:52.335,1,2,2,3,2,1,2,2,3,1,1
1777,16:59:52.587,1,2,2,3,2,1,2,2,3,1,1
1778,16:59:52.837,1,2,2,3,2,1,2,2,3,1,1
1779,16:59:53.077,1,2,2,3,2,1,2,2,3,1,1
1780,16:59:53.340,1,2,2,3,2,1,2,2,3,1,1
1781,16:59:53.583,1,2,2,3,2,1,2,2,3,1,1
1782,16:59:53.835,1,2,2,3,2,1,2,2,3,1,1
1783,16:59:54.084,1,2,2,3,2,1,2,2,3,1,1
1784,16:59:54.337,1,2,2,3,2,1,2,2,3,1,1
1785,16:59:54.583,1,2,2,3,2,1,2,2,3,1,1
1786,16:59:54.850,1,2,2,3,2,1,2,2,3,1,1
1787,16:59:55.085,1,2,2,3,2,1,2,2,3,1,1
1788,16:59:55.331,1,2,2,3,2,1,2,2,3,1,1
1789,16:59:55.580,1,2,2,3,2,1,2,2,3,1,1
1790,16:59:55.833,1,2,2,3,2,1,2,2,3,1,1
1791,16:59:56.084,1,2,2,3,2,1,2,2,3,1,1
1792,16:59:56.335,1,2,2,3,2,1,2,2,3,1,1
1793,16:59:56.579,1,2,2,3,2,1,2,2,3,1,1
1794,16:59:56.833,1,2,2,3,2,1,2,2,3,1,1
1795,16:59:57.080,1,2,2,3,2,1,2,2,3,1,1
1796,16:59:57.333,1,2,2,3,2,1,2,2,3,1,1
1797,16:59:57.581,1,2,2,3,2,1,2,2,3,1,1
1798,16:59:57.864,1,2,2,3,2,1,2,2,3,1,1
1799,16:59:58.081,1,2,2,3,2,1,2,2,3,1,1
1800,16:59:58.330,1,2,2,3,2,1,2,2,3,1,1
1801,16:59:58.579,1,2,2,3,2,1,2,2,3,1,1
1802,16:59:58.831,1,2,2,3,2,1,2,2,3,1,1
1803,16:59:59.080,1,2,2,3,2,1,2,2,3,1,1
1804,16:59:59.330,1,2,2,3,2,1,2,2,3,1,1
1805,16:59:59.580,1,2,2,3,2,1,2,2,3,1,1
1806,16:59:59.831,1,2,2,3,2,1,2,2,3,1,1
1807,17:00:00.080,1,2,2,3,2,1,2,2,3,1,1
1808,17:00:00.330,1,2,2,3,2,1,2,2,3,1,1
1809,17:00:00.582,1,2,2,3,2,1,2,2,3,1,1
1810,17:00:00.846,1,2,2,3,2,1,2,2,3,1,1
1811,17:00:01.080,1,2,2,3,2,1,2,2,3,1,1
1812,17:00:01.330,1,2,2,3,2,1,2,2,3,1,1
1813,17:00:01.593,1,2,2,3,2,1,2,2,3,1,1
1814,17:00:01.830,1,2,2,3,2,1,2,2,3,1,1
1815,17:00:02.077,1,2,2,3,2,1,2,2,3,1,1
1816,17:00:02.328,1,2,2,3,2,1,2,2,3,1,1
1817,17:00:02.579,1,2,2,3,2,1,2,2,3,1,1
1818,17:00:02.831,1,2,2,3,2,1,2,2,3,1,1
1819,17:00:03.079,1,2,2,3,2,1,2,2,3,1,1
1820,17:00:03.328,1,2,2,3,2,1,2,2,3,1,1
1821,17:00:03.578,1,2,2,3,2,1,2,2,3,1,1
1822,17:00:03.828,1,2,2,3,2,1,2,2,3,1,1
1823,17:00:04.079,1,2,2,3,2,1,2,2,3,1,1
1824,17:00:04.331,1,2,2,3,2,1,2,2,3,1,1
1825,17:00:04.568,1,2,2,3,2,1,2,2,3,1,1
1826,17:00:04.829,1,2,2,3,2,1,2,2,3,1,1
1827,17:00:05.076,1,2,2,3,2,1,2,2,3,1,1
1828,17:00:05.328,1,2,2,3,2,1,2,2,3,1,1
1829,17:00:05.577,1,2,2,3,2,1,2,2,3,1,1
1830,17:00:05.829,1,2,2,3,2,1,2,2,3,1,1
1831,17:00:06.076,1,2,2,3,2,1,2,2,3,1,1
1832,17:00:06.325,1,2,2,3,2,1,2,2,3,1,1
1833,17:00:06.574,1,2,2,3,2,1,2,2,3,1,1
1834,17:00:06.831,1,2,2,3,2,1,2,2,3,1,1
1835,17:00:07.075,1,2,2,3,2,1,2,2,3,1,1
1836,17:00:07.326,1,2,2,3,2,1,2,2,3,1,1
1837,17:00:07.576,1,2,2,3,2,1,2,2,3,1,1
1838,17:00:07.826,1,2,2,3,2,1,2,2,3,1,1
1839,17:00:08.076,1,2,2,3,2,1,2,2,3,1,1
1840,17:00:08.326,1,2,2,3,2,1,2,2,3,1,1
1841,17:00:08.574,1,2,2,3,2,1,2,2,3,1,1
1842,17:00:08.840,1,2,2,3,2,1,2,2,3,1,1
1843,17:00:09.074,1,2,2,3,2,1,2,2,3,1,1
1844,17:00:09.323,1,2,2,3,2,1,2,2,3,1,1
1845,17:00:09.573,1,2,2,3,2,1,2,2,3,1,1
1846,17:00:09.824,1,2,2,3,2,1,2,2,3,1,1
1847,17:00:10.074,1,2,2,3,2,1,2,2,3,1,1
1848,17:00:10.323,1,2,2,3,2,1,2,2,3,1,1
1849,17:00:10.572,1,2,2,3,2,1,2,2,3,1,1
1850,17:00:10.845,1,2,2,3,2,1,2,2,3,1,1
1851,17:00:11.070,1,2,2,3,2,1,2,2,3,1,1
1852,17:00:11.323,1,2,2,3,2,1,2,2,3,1,1
1853,17:00:11.570,1,2,2,3,2,1,2,2,3,1,1
1854,17:00:11.820,1,2,2,3,2,1,2,2,3,1,1
1855,17:00:12.070,1,2,2,3,2,1,2,2,3,1,1
1856,17:00:12.323,1,2,2,3,2,1,2,2,3,1,1
1857,17:00:12.573,1,2,2,3,2,1,2,2,3,1,1
1858,17:00:12.822,1,2,2,3,2,1,2,2,3,1,1
1859,17:00:13.072,1,2,2,3,2,1,2,2,3,1,1
1860,17:00:13.323,1,2,2,3,2,1,2,2,3,1,1
1861,17:00:13.569,1,2,2,3,2,1,2,2,3,1,1
1862,17:00:13.822,1,2,2,3,2,1,2,2,3,1,1
1863,17:00:14.071,1,2,2,3,2,1,2,2,3,1,1
1864,17:00:14.320,1,2,2,3,2,1,2,2,3,1,1
1865,17:00:14.573,1,2,2,3,2,1,2,2,3,1,1
1866,17:00:14.821,1,2,2,3,2,1,2,2,3,1,1
1867,17:00:15.069,1,2,2,3,2,1,2,2,3,1,1
1868,17:00:15.317,1,2,2,3,2,1,2,2,3,1,1
1869,17:00:15.572,1,2,2,3,2,1,2,2,3,1,1
1870,17:00:15.818,1,2,2,3,2,1,2,2,3,1,1
1871,17:00:16.070,1,2,2,3,2,1,2,2,3,1,1
1872,17:00:16.320,1,2,2,3,2,1,2,2,3,1,1
1873,17:00:16.567,1,2,2,3,2,1,2,2,3,1,1
1874,17:00:16.835,1,2,2,3,2,1,2,2,3,1,1
1875,17:00:17.069,1,2,2,3,2,1,2,2,3,1,1
1876,17:00:17.320,1,2,2,3,2,1,2,2,3,1,1
1877,17:00:17.569,1,2,2,3,2,1,2,2,3,1,1
1878,17:00:17.840,1,2,2,3,2,1,2,2,3,1,1
1879,17:00:18.068,1,2,2,3,2,1,2,2,3,1,1
1880,17:00:18.318,1,2,2,3,2,1,2,2,3,1,1
1881,17:00:18.566,1,2,2,3,2,1,2,2,3,1,1
1882,17:00:18.834,1,2,2,3,2,1,2,2,3,1,1
1883,17:00:19.070,1,2,2,3,2,1,2,2,3,1,1
1884,17:00:19.316,1,2,2,3,2,1,2,2,3,1,1
1885,17:00:19.568,1,2,2,3,2,1,2,2,3,1,1
1886,17:00:19.818,1,2,2,3,2,1,2,2,3,1,1
1887,17:00:20.068,1,2,2,3,2,1,2,2,3,1,1
1888,17:00:20.316,1,2,2,3,2,1,2,2,3,1,1
1889,17:00:20.565,1,2,2,3,2,1,2,2,3,1,1
1890,17:00:20.818,1,2,2,3,2,1,2,2,3,1,1
1891,17:00:21.070,1,2,2,3,2,1,2,2,3,1,1
1892,17:00:21.314,1,2,2,3,2,1,2,2,3,1,1
1893,17:00:21.566,1,2,2,3,2,1,2,2,3,1,1
1894,17:00:21.816,1,2,2,3,2,1,2,2,3,1,1
1895,17:00:22.066,1,2,2,3,2,1,2,2,3,1,1
1896,17:00:22.318,1,2,2,3,2,1,2,2,3,1,1
1897,17:00:22.564,1,2,2,3,2,1,2,2,3,1,1
1898,17:00:22.815,1,2,2,3,2,1,2,2,3,1,1
1899,17:00:23.063,1,2,2,3,2,1,2,2,3,1,1
1900,17:00:23.315,1,2,2,3,2,1,2,2,3,1,1
1901,17:00:23.565,1,2,2,3,2,1,2,2,3,1,1
1902,17:00:23.814,1,2,2,3,2,1,2,2,3,1,1
1903,17:00:24.063,1,2,2,3,2,1,2,2,3,1,1
1904,17:00:24.313,1,2,2,3,2,1,2,2,3,1,1
1905,17:00:24.562,1,2,2,3,2,1,2,2,3,1,1
1906,17:00:24.814,1,2,2,3,2,1,2,2,3,1,1
1907,17:00:25.054,1,2,2,3,2,1,2,2,3,1,1
1908,17:00:25.312,1,2,2,3,2,1,2,2,3,1,1
1909,17:00:25.562,1,2,2,3,2,1,2,2,3,1,1
1910,17:00:25.812,1,2,2,3,2,1,2,2,3,1,1
1911,17:00:26.060,1,2,2,3,2,1,2,2,3,1,1
1912,17:00:26.312,1,2,2,3,2,1,2,2,3,1,1
1913,17:00:26.562,1,2,2,3,2,1,2,2,3,1,1
1914,17:00:26.812,1,2,2,3,2,1,2,2,3,1,1
1915,17:00:27.062,1,2,2,3,2,1,2,2,3,1,1
1916,17:00:27.314,1,2,2,3,2,1,2,2,3,1,1
1917,17:00:27.562,1,2,2,3,2,1,2,2,3,1,1
1918,17:00:27.813,1,2,2,3,2,1,2,2,3,1,1
1919,17:00:28.061,1,2,2,3,2,1,2,2,3,1,1
1920,17:00:28.311,1,2,2,3,2,1,2,2,3,1,1
1921,17:00:28.561,1,2,2,3,2,1,2,2,3,1,1
1922,17:00:28.811,1,2,2,3,2,1,2,2,3,1,1
1923,17:00:29.070,1,2,2,3,2,1,2,2,3,1,1
1924,17:00:29.312,1,2,2,3,2,1,2,2,3,1,1
1925,17:00:29.562,1,2,2,3,2,1,2,2,3,1,1
1926,17:00:29.811,1,2,2,3,2,1,2,2,3,1,1
1927,17:00:30.061,1,2,2,3,2,1,2,2,3,1,1
1928,17:00:30.312,1,2,2,3,2,1,2,2,3,1,1
1929,17:00:30.561,1,2,2,3,2,1,2,2,3,1,1
1930,17:00:30.811,1,2,2,3,2,1,2,2,3,1,1
1931,17:00:31.059,1,2,2,3,2,1,2,2,3,1,1
1932,17:00:31.309,1,2,2,3,2,1,2,2,3,1,1
1933,17:00:31.570,1,2,2,3,2,1,2,2,3,1,1
1934,17:00:31.809,1,2,2,3,2,1,2,2,3,1,1
1935,17:00:32.058,1,2,2,3,2,1,2,2,3,1,1
1936,17:00:32.311,1,2,2,3,2,1,2,2,3,1,1
1937,17:00:32.561,1,2,2,3,2,1,2,2,3,1,1
1938,17:00:32.808,1,2,2,3,2,1,2,2,3,1,1
1939,17:00:33.058,1,2,2,3,2,1,2,2,3,1,1
1940,17:00:33.308,1,2,2,3,2,1,2,2,3,1,1
1941,17:00:33.555,1,2,2,3,2,1,2,2,3,1,1
1942,17:00:33.808,1,2,2,3,2,1,2,2,3,1,1
1943,17:00:34.059,1,2,2,3,2,1,2,2,3,1,1
1944,17:00:34.308,1,2,2,3,2,1,2,2,3,1,1
1945,17:00:34.557,1,2,2,3,2,1,2,2,3,1,1
1946,17:00:34.807,1,2,2,3,2,1,2,2,3,1,1
1947,17:00:35.058,1,2,2,3,2,1,2,2,3,1,1
1948,17:00:35.308,1,2,2,3,2,1,2,2,3,1,1
1949,17:00:35.585,1,2,2,3,2,1,2,2,3,1,1
1950,17:00:35.805,1,2,2,3,2,1,2,2,3,1,1
1951,17:00:36.057,1,2,2,3,2,1,2,2,3,1,1
1952,17:00:36.307,1,2,2,3,2,1,2,2,3,1,1
1953,17:00:36.554,1,2,2,3,2,1,2,2,3,1,1
1954,17:00:36.806,1,2,2,3,2,1,2,2,3,1,1
1955,17:00:37.057,1,2,2,3,2,1,2,2,3,1,1
1956,17:00:37.307,1,2,2,3,2,1,2,2,3,1,1
1957,17:00:37.556,1,2,2,3,2,1,2,2,3,1,1
1958,17:00:37.804,1,2,2,3,2,1,2,2,3,1,1
1959,17:00:38.055,1,2,2,3,2,1,2,2,3,1,1
1960,17:00:38.305,1,2,2,3,2,1,2,2,3,1,1
1961,17:00:38.574,1,2,2,3,2,1,2,2,3,1,1
1962,17:00:38.806,1,2,2,3,2,1,2,2,3,1,1
1963,17:00:39.053,1,2,2,3,2,1,2,2,3,1,1
1964,17:00:39.303,1,2,2,3,2,1,2,2,3,1,1
1965,17:00:39.553,1,2,2,3,2,1,2,2,3,1,1
1966,17:00:39.802,1,2,2,3,2,1,2,2,3,1,1
1967,17:00:40.052,1,2,2,3,2,1,2,2,3,1,1
1968,17:00:40.304,1,2,2,3,2,1,2,2,3,1,1
1969,17:00:40.553,1,2,2,3,2,1,2,2,3,1,1
1970,17:00:40.803,1,2,2,3,2,1,2,2,3,1,1
1971,17:00:41.052,1,2,2,3,2,1,2,2,3,1,1
1972,17:00:41.302,1,2,2,3,2,1,2,2,3,1,1
1973,17:00:41.570,1,2,2,3,2,1,2,2,3,1,1
1974,17:00:41.800,1,2,2,3,2,1,2,2,3,1,1
1975,17:00:42.053,1,2,2,3,2,1,2,2,3,1,1
1976,17:00:42.301,1,2,2,3,2,1,2,2,3,1,1
1977,17:00:42.549,1,2,2,3,2,1,2,2,3,1,1
1978,17:00:42.800,1,2,2,3,2,1,2,2,3,1,1
1979,17:00:43.063,1,2,2,3,2,1,2,2,3,1,1
1980,17:00:43.299,1,2,2,3,2,1,2,2,3,1,1
1981,17:00:43.552,1,2,2,3,2,1,2,2,3,1,1
1982,17:00:43.799,1,2,2,3,2,1,2,2,3,1,1
1983,17:00:44.050,1,2,2,3,2,1,2,2,3,1,1
1984,17:00:44.299,1,2,2,3,2,1,2,2,3,1,1
1985,17:00:44.551,1,2,2,3,2,1,2,2,3,1,1
1986,17:00:44.801,1,2,2,3,2,1,2,2,3,1,1
1987,17:00:45.050,1,2,2,3,2,1,2,2,3,1,1
1988,17:00:45.300,1,2,2,3,2,1,2,2,3,1,1
1989,17:00:45.549,1,2,2,3,2,1,2,2,3,1,1
1990,17:00:45.798,1,2,2,3,2,1,2,2,3,1,1
1991,17:00:46.045,1,2,2,3,2,1,2,2,3,1,1
1992,17:00:46.290,1,2,2,3,2,1,2,2,3,1,1
1993,17:00:46.547,1,2,2,3,2,1,2,2,3,1,1
1994,17:00:46.797,1,2,2,3,2,1,2,2,3,1,1
1995,17:00:47.047,1,2,2,3,2,1,2,2,3,1,1
1996,17:00:47.298,1,2,2,3,2,1,2,2,3,1,1
1997,17:00:47.547,1,2,2,3,2,1,2,2,3,1,1
1998,17:00:47.798,1,2,2,3,2,1,2,2,3,1,1
1999,17:00:48.047,1,2,2,3,2,1,2,2,3,1,1
2000,17:00:48.295,1,2,2,3,2,1,2,2,3,1,1
2001,17:00:48.538,1,2,2,3,2,1,2,2,3,1,1
2002,17:00:48.794,1,2,2,3,2,1,2,2,3,1,1
2003,17:00:49.045,1,2,2,3,2,1,2,2,3,1,1
2004,17:00:49.293,1,2,2,3,2,1,2,2,3,1,1
2005,17:00:49.545,1,2,2,3,2,1,2,2,3,1,1
2006,17:00:49.797,1,2,2,3,2,1,2,2,3,1,1
2007,17:00:50.046,1,2,2,3,2,1,2,2,3,1,1
2008,17:00:50.287,1,2,2,3,2,1,2,2,3,1,1
2009,17:00:50.547,1,2,2,3,2,1,2,2,3,1,1
2010,17:00:50.795,1,2,2,3,2,1,2,2,3,1,1
2011,17:00:51.044,1,2,2,3,2,1,2,2,3,1,1
2012,17:00:51.292,1,2,2,3,2,1,2,2,3,1,1
2013,17:00:51.543,1,2,2,3,2,1,2,2,3,1,1
2014,17:00:51.796,1,2,2,3,2,1,2,2,3,1,1
2015,17:00:52.046,1,2,2,3,2,1,2,2,3,1,1
2016,17:00:52.293,1,2,2,3,2,1,2,2,3,1,1
2017,17:00:52.545,1,2,2,3,2,1,2,2,3,1,1
2018,17:00:52.791,1,2,2,3,2,1,2,2,3,1,1
2019,17:00:53.042,1,2,2,3,2,1,2,2,3,1,1
2020,17:00:53.293,1,2,2,3,2,1,2,2,3,1,1
2021,17:00:53.543,1,2,2,3,2,1,2,2,3,1,1
2022,17:00:53.792,1,2,2,3,2,1,2,2,3,1,1
2023,17:00:54.042,1,2,2,3,2,1,2,2,3,1,1
2024,17:00:54.291,1,2,2,3,2,1,2,2,3,1,1
2025,17:00:54.543,1,2,2,3,2,1,2,2,3,1,1
2026,17:00:54.790,1,2,2,3,2,1,2,2,3,1,1
2027,17:00:55.041,1,2,2,3,2,1,2,2,3,1,1
2028,17:00:55.291,1,2,2,3,2,1,2,2,3,1,1
2029,17:00:55.540,1,2,2,3,2,1,2,2,3,1,1
2030,17:00:55.792,1,2,2,3,2,1,2,2,3,1,1
2031,17:00:56.039,1,2,2,3,2,1,2,2,3,1,1
2032,17:00:56.288,1,2,2,3,2,1,2,2,3,1,1
2033,17:00:56.540,1,2,2,3,2,1,2,2,3,1,1
2034,17:00:56.790,1,2,2,3,2,1,2,2,3,1,1
2035,17:00:57.040,1,2,2,3,2,1,2,2,3,1,1
2036,17:00:57.290,1,2,2,3,2,1,2,2,3,1,1
2037,17:00:57.542,1,2,2,3,2,1,2,2,3,1,1
2038,17:00:57.790,1,2,2,3,2,1,2,2,3,1,1
2039,17:00:58.040,1,2,2,3,2,1,2,2,3,1,1
2040,17:00:58.290,1,2,2,3,2,1,2,2,3,1,1
2041,17:00:58.540,1,2,2,3,2,1,2,2,3,1,1
2042,17:00:58.789,1,2,2,3,2,1,2,2,3,1,1
2043,17:00:59.039,1,2,2,3,2,1,2,2,3,1,1
2044,17:00:59.290,1,2,2,3,2,1,2,2,3,1,1
2045,17:00:59.540,1,2,2,3,2,1,2,2,3,1,1
2046,17:00:59.789,1,2,2,3,2,1,2,2,3,1,1
2047,17:01:00.039,1,2,2,3,2,1,2,2,3,1,1
2048,17:01:00.288,1,2,2,3,2,1,2,2,3,1,1
2049,17:01:00.538,1,2,2,3,2,1,2,2,3,1,1
2050,17:01:00.790,1,2,2,3,2,1,2,2,3,1,1
2051,17:01:01.037,1,2,2,3,2,1,2,2,3,1,1
2052,17:01:01.288,1,2,2,3,2,1,2,2,3,1,1
2053,17:01:01.538,1,2,2,3,2,1,2,2,3,1,1
2054,17:01:01.788,1,2,2,3,2,1,2,2,3,1,1
2055,17:01:02.037,1,2,2,3,2,1,2,2,3,1,1
2056,17:01:02.286,1,2,2,3,2,1,2,2,3,1,1
2057,17:01:02.536,1,2,2,3,2,1,2,2,3,1,1
2058,17:01:02.786,1,2,2,3,2,1,2,2,3,1,1
2059,17:01:03.036,1,2,2,3,2,1,2,2,3,1,1
2060,17:01:03.287,1,2,2,3,2,1,2,2,3,1,1
2061,17:01:03.536,1,2,2,3,2,1,2,2,3,1,1
2062,17:01:03.794,1,2,2,3,2,1,2,2,3,1,1
2063,17:01:04.034,1,2,2,3,2,1,2,2,3,1,1
2064,17:01:04.287,1,2,2,3,2,1,2,2,3,1,1
2065,17:01:04.536,1,2,2,3,2,1,2,2,3,1,1
2066,17:01:04.785,1,2,2,3,2,1,2,2,3,1,1
2067,17:01:05.033,1,2,2,3,2,1,2,2,3,1,1
2068,17:01:05.286,1,2,2,3,2,1,2,2,3,1,1
2069,17:01:05.535,1,2,2,3,2,1,2,2,3,1,1
2070,17:01:05.779,1,2,2,3,2,1,2,2,3,1,1
2071,17:01:06.035,1,2,2,3,2,1,2,2,3,1,1
2072,17:01:06.285,1,2,2,3,2,1,2,2,3,1,1
2073,17:01:06.536,1,2,2,3,2,1,2,2,3,1,1
2074,17:01:06.785,1,2,2,3,2,1,2,2,3,1,1
2075,17:01:07.035,1,2,2,3,2,1,2,2,3,1,1
2076,17:01:07.285,1,2,2,3,2,1,2,2,3,1,1
2077,17:01:07.531,1,2,2,3,2,1,2,2,3,1,1
2078,17:01:07.784,1,2,2,3,2,1,2,2,3,1,1
2079,17:01:08.033,1,2,2,3,2,1,2,2,3,1,1
2080,17:01:08.283,1,2,2,3,2,1,2,2,3,1,1
2081,17:01:08.535,1,2,2,3,2,1,2,2,3,1,1
2082,17:01:08.775,1,2,2,3,2,1,2,2,3,1,1
2083,17:01:09.033,1,2,2,3,2,1,2,2,3,1,1
2084,17:01:09.282,1,2,2,3,2,1,2,2,3,1,1
2085,17:01:09.532,1,2,2,3,2,1,2,2,3,1,1
2086,17:01:09.781,1,2,2,3,2,1,2,2,3,1,1
2087,17:01:10.030,1,2,2,3,2,1,2,2,3,1,1
2088,17:01:10.282,1,2,2,3,2,1,2,2,3,1,1
2089,17:01:10.533,1,2,2,3,2,1,2,2,3,1,1
2090,17:01:10.782,1,2,2,3,2,1,2,2,3,1,1
2091,17:01:11.033,1,2,2,3,2,1,2,2,3,1,1
2092,17:01:11.280,1,2,2,3,2,1,2,2,3,1,1
2093,17:01:11.522,1,2,2,3,2,1,2,2,3,1,1
2094,17:01:11.777,1,2,2,3,2,1,2,2,3,1,1
2095,17:01:12.031,1,2,2,3,2,1,2,2,3,1,1
2096,17:01:12.281,1,2,2,3,2,1,2,2,3,1,1
2097,17:01:12.531,1,2,2,3,2,1,2,2,3,1,1
2098,17:01:12.772,1,2,2,3,2,1,2,2,3,1,1
2099,17:01:13.031,1,2,2,3,2,1,2,2,3,1,1
2100,17:01:13.279,1,2,2,3,2,1,2,2,3,1,1
2101,17:01:13.529,1,2,2,3,2,1,2,2,3,1,1
2102,17:01:13.775,1,2,2,3,2,1,2,2,3,1,1
2103,17:01:14.027,1,2,2,3,2,1,2,2,3,1,1
2104,17:01:14.280,1,2,2,3,2,1,2,2,3,1,1
2105,17:01:14.529,1,2,2,3,2,1,2,2,3,1,1
2106,17:01:14.770,1,2,2,3,2,1,2,2,3,1,1
2107,17:01:15.027,1,2,2,3,2,1,2,2,3,1,1
2108,17:01:15.278,1,2,2,3,2,1,2,2,3,1,1
2109,17:01:58.697,4,3,4,2,3,4,4,3,4,4,4
2110,17:01:58.948,4,3,4,2,3,4,4,3,4,4,4
2111,17:01:59.198,4,3,4,2,3,4,4,3,4,4,4
2112,17:01:59.448,4,3,4,2,3,4,4,3,4,4,4
2113,17:01:59.699,4,3,4,2,3,4,4,3,4,4,4
2114,17:01:59.942,4,3,4,2,3,4,4,3,4,4,4
2115,17:02:00.194,4,3,4,2,3,4,4,3,4,4,4
2116,17:02:00.450,4,3,4,2,3,4,4,3,4,4,4
2117,17:02:00.696,4,3,4,2,3,4,4,3,4,4,4
2118,17:02:00.956,4,3,4,2,3,4,4,3,4,4,4
2119,17:02:01.196,4,3,4,2,3,4,4,3,4,4,4
2120,17:02:01.446,4,3,4,2,3,4,4,3,4,4,4
2121,17:02:01.695,4,3,4,2,3,4,4,3,4,4,4
2122,17:02:01.946,4,3,4,2,3,4,4,3,4,4,4
2123,17:02:02.197,4,3,4,2,3,4,4,3,4,4,4
2124,17:02:02.445,4,3,4,2,3,4,4,3,4,4,4
2125,17:02:02.695,4,3,4,2,3,4,4,3,4,4,4
2126,17:02:02.943,4,3,4,2,3,4,4,3,4,4,4
2127,17:02:03.194,4,3,4,2,3,4,4,3,4,4,4
2128,17:02:03.443,4,3,4,2,3,4,4,3,4,4,4
2129,17:02:03.693,4,3,4,2,3,4,4,3,4,4,4
2130,17:02:03.945,4,3,4,2,3,4,4,3,4,4,4
2131,17:02:04.192,4,3,4,2,3,4,4,3,4,4,4
2132,17:02:04.444,4,3,4,2,3,4,4,3,4,4,4
2133,17:02:04.693,4,3,4,2,3,4,4,3,4,4,4
2134,17:02:04.944,4,3,4,2,3,4,4,3,4,4,4
2135,17:02:05.185,4,3,4,2,3,4,4,3,4,4,4
2136,17:02:05.443,4,3,4,2,3,4,4,3,4,4,4
2137,17:02:05.692,4,3,4,2,3,4,4,3,4,4,4
2138,17:02:05.943,4,3,4,2,3,4,4,3,4,4,4
2139,17:02:06.191,4,3,4,2,3,4,4,3,4,4,4
2140,17:02:06.434,4,3,4,2,3,4,4,3,4,4,4
2141,17:02:06.693,4,3,4,2,3,4,4,3,4,4,4
2142,17:02:06.941,4,3,4,2,3,4,4,3,4,4,4
2143,17:02:07.191,4,3,4,2,3,4,4,3,4,4,4
2144,17:02:07.441,4,3,4,2,3,4,4,3,4,4,4
2145,17:02:07.691,4,3,4,2,3,4,4,3,4,4,4
2146,17:02:07.942,4,3,4,2,3,4,4,3,4,4,4
2147,17:02:08.198,4,3,4,2,3,4,4,3,4,4,4
2148,17:02:08.441,4,3,4,2,3,4,4,3,4,4,4
2149,17:02:08.690,4,3,4,2,3,4,4,3,4,4,4
2150,17:02:08.955,4,3,4,2,3,4,4,3,4,4,4
2151,17:02:09.192,4,3,4,2,3,4,4,3,4,4,4
2152,17:02:09.440,4,3,4,2,3,4,4,3,4,4,4
2153,17:02:09.689,4,3,4,2,3,4,4,3,4,4,4
2154,17:02:09.940,4,3,4,2,3,4,4,3,4,4,4
2155,17:02:10.191,4,3,4,2,3,4,4,3,4,4,4
2156,17:02:10.439,4,3,4,2,3,4,4,3,4,4,4
2157,17:02:10.688,4,3,4,2,3,4,4,3,4,4,4
2158,17:02:10.940,4,3,4,2,3,4,4,3,4,4,4
2159,17:02:11.185,4,3,4,2,3,4,4,3,4,4,4
2160,17:02:11.440,4,3,4,2,3,4,4,3,4,4,4
2161,17:02:11.687,4,3,4,2,3,4,4,3,4,4,4
2162,17:02:11.936,4,3,4,2,3,4,4,3,4,4,4
2163,17:02:12.191,4,3,4,2,3,4,4,3,4,4,4
2164,17:02:12.439,4,3,4,2,3,4,4,3,4,4,4
2165,17:02:12.688,4,3,4,2,3,4,4,3,4,4,4
2166,17:02:12.938,4,3,4,2,3,4,4,3,4,4,4
2167,17:02:13.186,4,3,4,2,3,4,4,3,4,4,4
2168,17:02:13.438,4,3,4,2,3,4,4,3,4,4,4
2169,17:02:13.687,4,3,4,2,3,4,4,3,4,4,4
2170,17:02:13.936,4,3,4,2,3,4,4,3,4,4,4
2171,17:02:14.186,4,3,4,2,3,4,4,3,4,4,4
2172,17:02:14.437,4,3,4,2,3,4,4,3,4,4,4
2173,17:02:14.687,4,3,4,2,3,4,4,3,4,4,4
2174,17:02:14.938,4,3,4,2,3,4,4,3,4,4,4
2175,17:02:15.190,4,3,4,2,3,4,4,3,4,4,4
2176,17:02:15.436,4,3,4,2,3,4,4,3,4,4,4
2177,17:02:15.687,4,3,4,2,3,4,4,3,4,4,4
2178,17:02:15.930,4,3,4,2,3,4,4,3,4,4,4
2179,17:02:16.185,4,3,4,2,3,4,4,3,4,4,4
2180,17:02:16.435,4,3,4,2,3,4,4,3,4,4,4
2181,17:02:16.685,4,3,4,2,3,4,4,3,4,4,4
2182,17:02:16.935,4,3,4,2,3,4,4,3,4,4,4
2183,17:02:17.182,4,3,4,2,3,4,4,3,4,4,4
2184,17:02:17.434,4,3,4,2,3,4,4,3,4,4,4
2185,17:02:17.684,4,3,4,2,3,4,4,3,4,4,4
2186,17:02:17.935,4,3,4,2,3,4,4,3,4,4,4
2187,17:02:18.185,4,3,4,2,3,4,4,3,4,4,4
2188,17:02:18.436,4,3,4,2,3,4,4,3,4,4,4
2189,17:02:18.686,4,3,4,2,3,4,4,3,4,4,4
2190,17:02:18.935,4,3,4,2,3,4,4,3,4,4,4
2191,17:02:19.175,4,3,4,2,3,4,4,3,4,4,4
2192,17:02:19.433,4,3,4,2,3,4,4,3,4,4,4
2193,17:02:19.683,4,3,4,2,3,4,4,3,4,4,4
2194,17:02:19.935,4,3,4,2,3,4,4,3,4,4,4
2195,17:02:20.182,4,3,4,2,3,4,4,3,4,4,4
2196,17:02:20.434,4,3,4,2,3,4,4,3,4,4,4
2197,17:02:20.682,4,3,4,2,3,4,4,3,4,4,4
2198,17:02:20.934,4,3,4,2,3,4,4,3,4,4,4
2199,17:02:21.183,4,3,4,2,3,4,4,3,4,4,4
2200,17:02:21.433,4,3,4,2,3,4,4,3,4,4,4
2201,17:02:21.683,4,3,4,2,3,4,4,3,4,4,4
2202,17:02:21.923,4,3,4,2,3,4,4,3,4,4,4
2203,17:02:22.182,4,3,4,2,3,4,4,3,4,4,4
2204,17:02:22.432,4,3,4,2,3,4,4,3,4,4,4
2205,17:02:22.681,4,3,4,2,3,4,4,3,4,4,4
2206,17:02:22.932,4,3,4,2,3,4,4,3,4,4,4
2207,17:02:23.181,4,3,4,2,3,4,4,3,4,4,4
2208,17:02:23.436,4,3,4,2,3,4,4,3,4,4,4
2209,17:02:23.682,4,3,4,2,3,4,4,3,4,4,4
2210,17:02:23.930,4,3,4,2,3,4,4,3,4,4,4
2211,17:02:24.179,4,3,4,2,3,4,4,3,4,4,4
2212,17:02:24.429,4,3,4,2,3,4,4,3,4,4,4
2213,17:02:24.679,4,3,4,2,3,4,4,3,4,4,4
2214,17:02:24.930,4,3,4,2,3,4,4,3,4,4,4
2215,17:02:25.179,4,3,4,2,3,4,4,3,4,4,4
2216,17:02:25.429,4,3,4,2,3,4,4,3,4,4,4
2217,17:02:25.678,4,3,4,2,3,4,4,3,4,4,4
2218,17:02:25.928,4,3,4,2,3,4,4,3,4,4,4
2219,17:02:26.179,4,3,4,2,3,4,4,3,4,4,4
2220,17:02:26.428,4,3,4,2,3,4,4,3,4,4,4
2221,17:02:26.669,4,3,4,2,3,4,4,3,4,4,4
2222,17:02:26.928,4,3,4,2,3,4,4,3,4,4,4
2223,17:02:27.177,4,3,4,2,3,4,4,3,4,4,4
2224,17:02:27.427,4,3,4,2,3,4,4,3,4,4,4
2225,17:02:27.677,4,3,4,2,3,4,4,3,4,4,4
2226,17:02:27.929,4,3,4,2,3,4,4,3,4,4,4
2227,17:02:28.177,4,3,4,2,3,4,4,3,4,4,4
2228,17:02:28.427,4,3,4,2,3,4,4,3,4,4,4
2229,17:02:28.693,4,3,4,2,3,4,4,3,4,4,4
2230,17:02:28.927,4,3,4,2,3,4,4,3,4,4,4
2231,17:02:29.181,4,3,4,2,3,4,4,3,4,4,4
2232,17:02:29.426,4,3,4,2,3,4,4,3,4,4,4
2233,17:02:29.681,4,3,4,2,3,4,4,3,4,4,4
2234,17:02:29.927,4,3,4,2,3,4,4,3,4,4,4
2235,17:02:30.175,4,3,4,2,3,4,4,3,4,4,4
2236,17:02:30.427,4,3,4,2,3,4,4,3,4,4,4
2237,17:02:30.675,4,3,4,2,3,4,4,3,4,4,4
2238,17:02:30.925,4,3,4,2,3,4,4,3,4,4,4
2239,17:02:31.175,4,3,4,2,3,4,4,3,4,4,4
2240,17:02:31.425,4,3,4,2,3,4,4,3,4,4,4
2241,17:02:31.674,4,3,4,2,3,4,4,3,4,4,4
2242,17:02:31.926,4,3,4,2,3,4,4,3,4,4,4
2243,17:02:32.174,4,3,4,2,3,4,4,3,4,4,4
2244,17:02:32.424,4,3,4,2,3,4,4,3,4,4,4
2245,17:02:32.666,4,3,4,2,3,4,4,3,4,4,4
2246,17:02:32.924,4,3,4,2,3,4,4,3,4,4,4
2247,17:02:33.173,4,3,4,2,3,4,4,3,4,4,4
2248,17:02:33.423,4,3,4,2,3,4,4,3,4,4,4
2249,17:02:33.672,4,3,4,2,3,4,4,3,4,4,4
2250,17:02:33.924,4,3,4,2,3,4,4,3,4,4,4
2251,17:02:34.174,4,3,4,2,3,4,4,3,4,4,4
2252,17:02:34.423,4,3,4,2,3,4,4,3,4,4,4
2253,17:02:34.673,4,3,4,2,3,4,4,3,4,4,4
2254,17:02:34.950,4,3,4,2,3,4,4,3,4,4,4
2255,17:02:35.180,4,3,4,2,3,4,4,3,4,4,4
2256,17:02:35.424,4,3,4,2,3,4,4,3,4,4,4
2257,17:02:35.673,4,3,4,2,3,4,4,3,4,4,4
2258,17:02:35.922,4,3,4,2,3,4,4,3,4,4,4
2259,17:02:36.171,4,3,4,2,3,4,4,3,4,4,4
2260,17:02:36.454,4,3,4,2,3,4,4,3,4,4,4
2261,17:02:36.670,4,3,4,2,3,4,4,3,4,4,4
2262,17:02:36.920,4,3,4,2,3,4,4,3,4,4,4
2263,17:02:37.170,4,3,4,2,3,4,4,3,4,4,4
2264,17:02:37.420,4,3,4,2,3,4,4,3,4,4,4
2265,17:02:37.670,4,3,4,2,3,4,4,3,4,4,4
2266,17:02:37.921,4,3,4,2,3,4,4,3,4,4,4
2267,17:02:38.174,4,3,4,2,3,4,4,3,4,4,4
2268,17:02:38.420,4,3,4,2,3,4,4,3,4,4,4
2269,17:02:38.671,4,3,4,2,3,4,4,3,4,4,4
2270,17:02:38.920,4,3,4,2,3,4,4,3,4,4,4
2271,17:02:39.168,4,3,4,2,3,4,4,3,4,4,4
2272,17:02:39.419,4,3,4,2,3,4,4,3,4,4,4
2273,17:02:39.668,4,3,4,2,3,4,4,3,4,4,4
2274,17:02:39.928,4,3,4,2,3,4,4,3,4,4,4
2275,17:02:40.169,4,3,4,2,3,4,4,3,4,4,4
2276,17:02:40.419,4,3,4,2,3,4,4,3,4,4,4
2277,17:02:40.670,4,3,4,2,3,4,4,3,4,4,4
2278,17:02:40.919,4,3,4,2,3,4,4,3,4,4,4
2279,17:02:41.171,4,3,4,2,3,4,4,3,4,4,4
2280,17:02:41.419,4,3,4,2,3,4,4,3,4,4,4
2281,17:02:41.667,4,3,4,2,3,4,4,3,4,4,4
2282,17:02:41.917,4,3,4,2,3,4,4,3,4,4,4
2283,17:02:42.169,4,3,4,2,3,4,4,3,4,4,4
2284,17:02:42.419,4,3,4,2,3,4,4,3,4,4,4
2285,17:02:42.668,4,3,4,2,3,4,4,3,4,4,4
2286,17:02:42.916,4,3,4,2,3,4,4,3,4,4,4
2287,17:02:43.166,4,3,4,2,3,4,4,3,4,4,4
2288,17:02:43.416,4,3,4,2,3,4,4,3,4,4,4
2289,17:02:43.668,4,3,4,2,3,4,4,3,4,4,4
2290,17:02:43.916,4,3,4,2,3,4,4,3,4,4,4
2291,17:02:44.165,4,3,4,2,3,4,4,3,4,4,4
2292,17:02:44.415,4,3,4,2,3,4,4,3,4,4,4
2293,17:02:44.666,4,3,4,2,3,4,4,3,4,4,4
2294,17:02:44.908,4,3,4,2,3,4,4,3,4,4,4
2295,17:02:45.164,4,3,4,2,3,4,4,3,4,4,4
2296,17:02:45.418,4,3,4,2,3,4,4,3,4,4,4
2297,17:02:45.667,4,3,4,2,3,4,4,3,4,4,4
2298,17:02:45.915,4,3,4,2,3,4,4,3,4,4,4
2299,17:02:46.166,4,3,4,2,3,4,4,3,4,4,4
2300,17:02:46.419,4,3,4,2,3,4,4,3,4,4,4
2301,17:02:46.677,4,3,4,2,3,4,4,3,4,4,4
2302,17:02:46.914,4,3,4,2,3,4,4,3,4,4,4
2303,17:02:47.166,4,3,4,2,3,4,4,3,4,4,4
2304,17:02:47.415,4,3,4,2,3,4,4,3,4,4,4
2305,17:02:47.684,4,3,4,2,3,4,4,3,4,4,4
2306,17:02:47.914,4,3,4,2,3,4,4,3,4,4,4
2307,17:02:48.164,4,3,4,2,3,4,4,3,4,4,4
2308,17:02:48.415,4,3,4,2,3,4,4,3,4,4,4
2309,17:02:48.693,4,3,4,2,3,4,4,3,4,4,4
2310,17:02:48.913,4,3,4,2,3,4,4,3,4,4,4
2311,17:02:49.164,4,3,4,2,3,4,4,3,4,4,4
2312,17:02:49.413,4,3,4,2,3,4,4,3,4,4,4
2313,17:02:49.665,4,3,4,2,3,4,4,3,4,4,4
2314,17:02:49.914,4,3,4,2,3,4,4,3,4,4,4
2315,17:02:50.162,4,3,4,2,3,4,4,3,4,4,4
2316,17:02:50.414,4,3,4,2,3,4,4,3,4,4,4
2317,17:02:50.662,4,3,4,2,3,4,4,3,4,4,4
2318,17:02:50.907,4,3,4,2,3,4,4,3,4,4,4
2319,17:02:51.161,4,3,4,2,3,4,4,3,4,4,4
2320,17:02:51.412,4,3,4,2,3,4,4,3,4,4,4
2321,17:02:51.663,4,3,4,2,3,4,4,3,4,4,4
2322,17:02:51.910,4,3,4,2,3,4,4,3,4,4,4
2323,17:02:52.164,4,3,4,2,3,4,4,3,4,4,4
2324,17:02:52.410,4,3,4,2,3,4,4,3,4,4,4
2325,17:02:52.677,4,3,4,2,3,4,4,3,4,4,4
2326,17:02:52.910,4,3,4,2,3,4,4,3,4,4,4
2327,17:02:53.173,4,3,4,2,3,4,4,3,4,4,4
2328,17:02:53.410,4,3,4,2,3,4,4,3,4,4,4
2329,17:02:53.659,4,3,4,2,3,4,4,3,4,4,4
2330,17:02:53.909,4,3,4,2,3,4,4,3,4,4,4
2331,17:02:54.160,4,3,4,2,3,4,4,3,4,4,4
2332,17:02:54.408,4,3,4,2,3,4,4,3,4,4,4
2333,17:02:54.675,4,3,4,2,3,4,4,3,4,4,4
2334,17:02:54.908,4,3,4,2,3,4,4,3,4,4,4
2335,17:02:55.158,4,3,4,2,3,4,4,3,4,4,4
2336,17:02:55.407,4,3,4,2,3,4,4,3,4,4,4
2337,17:02:55.657,4,3,4,2,3,4,4,3,4,4,4
2338,17:02:55.906,4,3,4,2,3,4,4,3,4,4,4
2339,17:02:56.150,4,3,4,2,3,4,4,3,4,4,4
2340,17:02:56.407,4,3,4,2,3,4,4,3,4,4,4
2341,17:02:56.657,4,3,4,2,3,4,4,3,4,4,4
2342,17:02:56.906,4,3,4,2,3,4,4,3,4,4,4
2343,17:02:57.161,4,3,4,2,3,4,4,3,4,4,4
2344,17:02:57.402,4,3,4,2,3,4,4,3,4,4,4
2345,17:02:57.656,4,3,4,2,3,4,4,3,4,4,4
2346,17:02:57.909,4,3,4,2,3,4,4,3,4,4,4
2347,17:02:58.155,4,3,4,2,3,4,4,3,4,4,4
2348,17:02:58.406,4,3,4,2,3,4,4,3,4,4,4
2349,17:02:58.655,4,3,4,2,3,4,4,3,4,4,4
2350,17:02:58.925,4,3,4,2,3,4,4,3,4,4,4
2351,17:02:59.156,4,3,4,2,3,4,4,3,4,4,4
2352,17:02:59.406,4,3,4,2,3,4,4,3,4,4,4
2353,17:02:59.656,4,3,4,2,3,4,4,3,4,4,4
2354,17:02:59.903,4,3,4,2,3,4,4,3,4,4,4
2355,17:03:00.156,4,3,4,2,3,4,4,3,4,4,4
2356,17:03:00.405,4,3,4,2,3,4,4,3,4,4,4
2357,17:03:00.670,4,3,4,2,3,4,4,3,4,4,4
2358,17:03:00.906,4,3,4,2,3,4,4,3,4,4,4
2359,17:03:01.155,4,3,4,2,3,4,4,3,4,4,4
2360,17:03:01.403,4,3,4,2,3,4,4,3,4,4,4
2361,17:03:01.651,4,3,4,2,3,4,4,3,4,4,4
2362,17:03:01.903,4,3,4,2,3,4,4,3,4,4,4
2363,17:03:02.154,4,3,4,2,3,4,4,3,4,4,4
2364,17:03:02.425,4,3,4,2,3,4,4,3,4,4,4
2365,17:03:02.654,4,3,4,2,3,4,4,3,4,4,4
2366,17:03:02.904,4,3,4,2,3,4,4,3,4,4,4
2367,17:03:03.153,4,3,4,2,3,4,4,3,4,4,4
2368,17:03:03.405,4,3,4,2,3,4,4,3,4,4,4
2369,17:03:03.645,4,3,4,2,3,4,4,3,4,4,4
2370,17:03:03.905,4,3,4,2,3,4,4,3,4,4,4
2371,17:03:04.152,4,3,4,2,3,4,4,3,4,4,4
2372,17:03:04.402,4,3,4,2,3,4,4,3,4,4,4
2373,17:03:04.670,4,3,4,2,3,4,4,3,4,4,4
2374,17:03:04.894,4,3,4,2,3,4,4,3,4,4,4
2375,17:03:05.153,4,3,4,2,3,4,4,3,4,4,4
2376,17:03:05.401,4,3,4,2,3,4,4,3,4,4,4
2377,17:03:05.653,4,3,4,2,3,4,4,3,4,4,4
2378,17:03:05.902,4,3,4,2,3,4,4,3,4,4,4
2379,17:03:06.151,4,3,4,2,3,4,4,3,4,4,4
2380,17:03:06.405,4,3,4,2,3,4,4,3,4,4,4
2381,17:03:06.649,4,3,4,2,3,4,4,3,4,4,4
2382,17:03:06.901,4,3,4,2,3,4,4,3,4,4,4
2383,17:03:07.152,4,3,4,2,3,4,4,3,4,4,4
2384,17:03:07.405,4,3,4,2,3,4,4,3,4,4,4
2385,17:03:07.641,4,3,4,2,3,4,4,3,4,4,4
2386,17:03:07.903,4,3,4,2,3,4,4,3,4,4,4
2387,17:03:08.153,4,3,4,2,3,4,4,3,4,4,4
2388,17:03:08.403,4,3,4,2,3,4,4,3,4,4,4
2389,17:03:08.649,4,3,4,2,3,4,4,3,4,4,4
2390,17:03:08.900,4,3,4,2,3,4,4,3,4,4,4
2391,17:03:09.150,4,3,4,2,3,4,4,3,4,4,4
2392,17:03:09.400,4,3,4,2,3,4,4,3,4,4,4
2393,17:03:09.649,4,3,4,2,3,4,4,3,4,4,4
2394,17:03:09.901,4,3,4,2,3,4,4,3,4,4,4
2395,17:03:10.151,4,3,4,2,3,4,4,3,4,4,4
2396,17:03:10.410,4,3,4,2,3,4,4,3,4,4,4
2397,17:03:10.650,4,3,4,2,3,4,4,3,4,4,4
2398,17:03:10.899,4,3,4,2,3,4,4,3,4,4,4
2399,17:03:11.150,4,3,4,2,3,4,4,3,4,4,4
2400,17:03:11.410,4,3,4,2,3,4,4,3,4,4,4
2401,17:03:11.647,4,3,4,2,3,4,4,3,4,4,4
2402,17:03:11.899,4,3,4,2,3,4,4,3,4,4,4
2403,17:03:12.147,4,3,4,2,3,4,4,3,4,4,4
2404,17:03:12.397,4,3,4,2,3,4,4,3,4,4,4
2405,17:03:12.646,4,3,4,2,3,4,4,3,4,4,4
2406,17:03:12.901,4,3,4,2,3,4,4,3,4,4,4
2407,17:03:13.147,4,3,4,2,3,4,4,3,4,4,4
2408,17:03:13.411,4,3,4,2,3,4,4,3,4,4,4
2409,17:03:13.651,4,3,4,2,3,4,4,3,4,4,4
2410,17:03:13.897,4,3,4,2,3,4,4,3,4,4,4
2411,17:03:14.147,4,3,4,2,3,4,4,3,4,4,4
2412,17:03:14.397,4,3,4,2,3,4,4,3,4,4,4
2413,17:03:14.646,4,3,4,2,3,4,4,3,4,4,4
2414,17:03:14.897,4,3,4,2,3,4,4,3,4,4,4
2415,17:03:15.146,4,3,4,2,3,4,4,3,4,4,4
2416,17:03:15.398,4,3,4,2,3,4,4,3,4,4,4
2417,17:03:15.646,4,3,4,2,3,4,4,3,4,4,4
2418,17:03:15.895,4,3,4,2,3,4,4,3,4,4,4
2419,17:03:16.147,4,3,4,2,3,4,4,3,4,4,4
2420,17:03:16.394,4,3,4,2,3,4,4,3,4,4,4
2421,17:03:16.643,4,3,4,2,3,4,4,3,4,4,4
2422,17:03:16.897,4,3,4,2,3,4,4,3,4,4,4
2423,17:03:17.147,4,3,4,2,3,4,4,3,4,4,4
2424,17:03:17.409,4,3,4,2,3,4,4,3,4,4,4
2425,17:03:17.642,4,3,4,2,3,4,4,3,4,4,4
2426,17:03:17.892,4,3,4,2,3,4,4,3,4,4,4
2427,17:03:18.142,4,3,4,2,3,4,4,3,4,4,4
2428,17:03:18.393,4,3,4,2,3,4,4,3,4,4,4
2429,17:03:18.643,4,3,4,2,3,4,4,3,4,4,4
2430,17:03:18.891,4,3,4,2,3,4,4,3,4,4,4
2431,17:03:19.142,4,3,4,2,3,4,4,3,4,4,4
2432,17:03:19.393,4,3,4,2,3,4,4,3,4,4,4
2433,17:03:19.641,4,3,4,2,3,4,4,3,4,4,4
2434,17:03:19.890,4,3,4,2,3,4,4,3,4,4,4
2435,17:03:20.141,4,3,4,2,3,4,4,3,4,4,4
2436,17:03:20.395,4,3,4,2,3,4,4,3,4,4,4
2437,17:03:20.641,4,3,4,2,3,4,4,3,4,4,4
2438,17:03:20.890,4,3,4,2,3,4,4,3,4,4,4
2439,17:03:21.141,4,3,4,2,3,4,4,3,4,4,4
2440,17:03:21.390,4,3,4,2,3,4,4,3,4,4,4
2441,17:03:21.638,4,3,4,2,3,4,4,3,4,4,4
2442,17:03:21.889,4,3,4,2,3,4,4,3,4,4,4
2443,17:03:22.139,4,3,4,2,3,4,4,3,4,4,4
2444,17:03:22.390,4,3,4,2,3,4,4,3,4,4,4
2445,17:03:22.643,4,3,4,2,3,4,4,3,4,4,4
2446,17:03:22.889,4,3,4,2,3,4,4,3,4,4,4
2447,17:03:23.140,4,3,4,2,3,4,4,3,4,4,4
2448,17:03:23.388,4,3,4,2,3,4,4,3,4,4,4
2449,17:03:23.639,4,3,4,2,3,4,4,3,4,4,4
2450,17:03:23.888,4,3,4,2,3,4,4,3,4,4,4
2451,17:03:24.139,4,3,4,2,3,4,4,3,4,4,4
2452,17:03:24.387,4,3,4,2,3,4,4,3,4,4,4
2453,17:03:24.637,4,3,4,2,3,4,4,3,4,4,4
2454,17:03:24.886,4,3,4,2,3,4,4,3,4,4,4
2455,17:03:25.138,4,3,4,2,3,4,4,3,4,4,4
2456,17:03:25.387,4,3,4,2,3,4,4,3,4,4,4
2457,17:03:25.641,4,3,4,2,3,4,4,3,4,4,4
2458,17:03:25.886,4,3,4,2,3,4,4,3,4,4,4
2459,17:03:26.140,4,3,4,2,3,4,4,3,4,4,4
2460,17:03:26.386,4,3,4,2,3,4,4,3,4,4,4
2461,17:03:26.638,4,3,4,2,3,4,4,3,4,4,4
2462,17:03:26.895,4,3,4,2,3,4,4,3,4,4,4
2463,17:03:27.140,4,3,4,2,3,4,4,3,4,4,4
2464,17:03:27.386,4,3,4,2,3,4,4,3,4,4,4
2465,17:03:27.636,4,3,4,2,3,4,4,3,4,4,4
2466,17:03:27.886,4,3,4,2,3,4,4,3,4,4,4
2467,17:03:28.127,4,3,4,2,3,4,4,3,4,4,4
2468,17:03:28.387,4,3,4,2,3,4,4,3,4,4,4
2469,17:03:28.636,4,3,4,2,3,4,4,3,4,4,4
2470,17:03:28.884,4,3,4,2,3,4,4,3,4,4,4
2471,17:03:29.137,4,3,4,2,3,4,4,3,4,4,4
2472,17:03:29.383,4,3,4,2,3,4,4,3,4,4,4
2473,17:03:29.633,4,3,4,2,3,4,4,3,4,4,4
2474,17:03:29.883,4,3,4,2,3,4,4,3,4,4,4
2475,17:03:30.134,4,3,4,2,3,4,4,3,4,4,4
2476,17:03:30.387,4,3,4,2,3,4,4,3,4,4,4
2477,17:03:30.633,4,3,4,2,3,4,4,3,4,4,4
2478,17:03:30.894,4,3,4,2,3,4,4,3,4,4,4
2479,17:03:31.131,4,3,4,2,3,4,4,3,4,4,4
2480,17:03:31.382,4,3,4,2,3,4,4,3,4,4,4
2481,17:03:31.632,4,3,4,2,3,4,4,3,4,4,4
2482,17:03:31.883,4,3,4,2,3,4,4,3,4,4,4
2483,17:03:32.134,4,3,4,2,3,4,4,3,4,4,4
2484,17:03:32.382,4,3,4,2,3,4,4,3,4,4,4
2485,17:03:32.631,4,3,4,2,3,4,4,3,4,4,4
2486,17:03:32.894,4,3,4,2,3,4,4,3,4,4,4
2487,17:03:33.130,4,3,4,2,3,4,4,3,4,4,4
2488,17:03:33.381,4,3,4,2,3,4,4,3,4,4,4
2489,17:03:33.633,4,3,4,2,3,4,4,3,4,4,4
2490,17:03:33.880,4,3,4,2,3,4,4,3,4,4,4
2491,17:03:34.129,4,3,4,2,3,4,4,3,4,4,4
2492,17:03:34.379,4,3,4,2,3,4,4,3,4,4,4
2493,17:03:34.632,4,3,4,2,3,4,4,3,4,4,4
2494,17:03:34.879,4,3,4,2,3,4,4,3,4,4,4
2495,17:03:35.131,4,3,4,2,3,4,4,3,4,4,4
2496,17:03:35.382,4,3,4,2,3,4,4,3,4,4,4
2497,17:03:35.631,4,3,4,2,3,4,4,3,4,4,4
2498,17:03:35.883,4,3,4,2,3,4,4,3,4,4,4
2499,17:03:36.131,4,3,4,2,3,4,4,3,4,4,4
2500,17:03:36.378,4,3,4,2,3,4,4,3,4,4,4
2501,17:03:36.630,4,3,4,2,3,4,4,3,4,4,4
2502,17:03:36.879,4,3,4,2,3,4,4,3,4,4,4
2503,17:03:37.130,4,3,4,2,3,4,4,3,4,4,4
2504,17:03:37.382,4,3,4,2,3,4,4,3,4,4,4
2505,17:03:37.629,4,3,4,2,3,4,4,3,4,4,4
2506,17:03:37.878,4,3,4,2,3,4,4,3,4,4,4
2507,17:03:38.128,4,3,4,2,3,4,4,3,4,4,4
2508,17:03:38.371,4,3,4,2,3,4,4,3,4,4,4
2509,17:03:38.628,4,3,4,2,3,4,4,3,4,4,4
2510,17:03:38.877,4,3,4,2,3,4,4,3,4,4,4
2511,17:03:39.127,4,3,4,2,3,4,4,3,4,4,4
2512,17:03:39.377,4,3,4,2,3,4,4,3,4,4,4
2513,17:03:39.627,4,3,4,2,3,4,4,3,4,4,4
2514,17:03:39.875,4,3,4,2,3,4,4,3,4,4,4
2515,17:03:40.126,4,3,4,2,3,4,4,3,4,4,4
2516,17:03:40.378,4,3,4,2,3,4,4,3,4,4,4
2517,17:03:40.625,4,3,4,2,3,4,4,3,4,4,4
2518,17:03:40.875,4,3,4,2,3,4,4,3,4,4,4
2519,17:03:41.125,4,3,4,2,3,4,4,3,4,4,4
2520,17:03:41.374,4,3,4,2,3,4,4,3,4,4,4
2521,17:03:41.625,4,3,4,2,3,4,4,3,4,4,4
2522,17:03:41.877,4,3,4,2,3,4,4,3,4,4,4
2523,17:03:42.128,4,3,4,2,3,4,4,3,4,4,4
2524,17:03:42.376,4,3,4,2,3,4,4,3,4,4,4
2525,17:03:42.625,4,3,4,2,3,4,4,3,4,4,4
2526,17:03:42.877,4,3,4,2,3,4,4,3,4,4,4
2527,17:03:43.125,4,3,4,2,3,4,4,3,4,4,4
2528,17:03:43.388,4,3,4,2,3,4,4,3,4,4,4
2529,17:03:43.626,4,3,4,2,3,4,4,3,4,4,4
2530,17:03:43.874,4,3,4,2,3,4,4,3,4,4,4
2531,17:03:44.123,4,3,4,2,3,4,4,3,4,4,4
2532,17:03:44.375,4,3,4,2,3,4,4,3,4,4,4
2533,17:03:44.624,4,3,4,2,3,4,4,3,4,4,4
2534,17:03:44.873,4,3,4,2,3,4,4,3,4,4,4
2535,17:03:45.124,4,3,4,2,3,4,4,3,4,4,4
2536,17:03:45.375,4,3,4,2,3,4,4,3,4,4,4
2537,17:03:45.625,4,3,4,2,3,4,4,3,4,4,4
2538,17:03:45.865,4,3,4,2,3,4,4,3,4,4,4
2539,17:03:46.123,4,3,4,2,3,4,4,3,4,4,4
2540,17:03:46.373,4,3,4,2,3,4,4,3,4,4,4
2541,17:03:46.627,4,3,4,2,3,4,4,3,4,4,4
2542,17:03:46.872,4,3,4,2,3,4,4,3,4,4,4
2543,17:03:47.123,4,3,4,2,3,4,4,3,4,4,4
2544,17:03:47.383,4,3,4,2,3,4,4,3,4,4,4
2545,17:03:47.622,4,3,4,2,3,4,4,3,4,4,4
2546,17:03:47.873,4,3,4,2,3,4,4,3,4,4,4
2547,17:03:48.128,4,3,4,2,3,4,4,3,4,4,4
2548,17:03:48.374,4,3,4,2,3,4,4,3,4,4,4
2549,17:03:48.612,4,3,4,2,3,4,4,3,4,4,4
2550,17:03:48.878,4,3,4,2,3,4,4,3,4,4,4
2551,17:03:49.121,4,3,4,2,3,4,4,3,4,4,4
2552,17:03:49.373,4,3,4,2,3,4,4,3,4,4,4
2553,17:03:49.622,4,3,4,2,3,4,4,3,4,4,4
2554,17:03:49.870,4,3,4,2,3,4,4,3,4,4,4
2555,17:03:50.119,4,3,4,2,3,4,4,3,4,4,4
2556,17:03:50.370,4,3,4,2,3,4,4,3,4,4,4
2557,17:03:50.620,4,3,4,2,3,4,4,3,4,4,4
2558,17:03:50.869,4,3,4,2,3,4,4,3,4,4,4
2559,17:03:51.120,4,3,4,2,3,4,4,3,4,4,4
2560,17:03:51.372,4,3,4,2,3,4,4,3,4,4,4
2561,17:03:51.645,4,3,4,2,3,4,4,3,4,4,4
2562,17:03:51.876,4,3,4,2,3,4,4,3,4,4,4
2563,17:03:52.118,4,3,4,2,3,4,4,3,4,4,4
2564,17:03:52.369,4,3,4,2,3,4,4,3,4,4,4
2565,17:03:52.618,4,3,4,2,3,4,4,3,4,4,4
2566,17:03:52.868,4,3,4,2,3,4,4,3,4,4,4
2567,17:03:53.121,4,3,4,2,3,4,4,3,4,4,4
2568,17:03:53.365,4,3,4,2,3,4,4,3,4,4,4
2569,17:03:53.620,4,3,4,2,3,4,4,3,4,4,4
2570,17:03:53.868,4,3,4,2,3,4,4,3,4,4,4
2571,17:03:54.117,4,3,4,2,3,4,4,3,4,4,4
2572,17:03:54.368,4,3,4,2,3,4,4,3,4,4,4
2573,17:03:54.616,4,3,4,2,3,4,4,3,4,4,4
2574,17:03:54.866,4,3,4,2,3,4,4,3,4,4,4
2575,17:03:55.120,4,3,4,2,3,4,4,3,4,4,4
2576,17:03:55.366,4,3,4,2,3,4,4,3,4,4,4
2577,17:03:55.618,4,3,4,2,3,4,4,3,4,4,4
2578,17:03:55.866,4,3,4,2,3,4,4,3,4,4,4
2579,17:03:56.110,4,3,4,2,3,4,4,3,4,4,4
2580,17:03:56.366,4,3,4,2,3,4,4,3,4,4,4
2581,17:03:56.615,4,3,4,2,3,4,4,3,4,4,4
2582,17:03:56.866,4,3,4,2,3,4,4,3,4,4,4
2583,17:03:57.116,4,3,4,2,3,4,4,3,4,4,4
2584,17:03:57.398,4,3,4,2,3,4,4,3,4,4,4
2585,17:03:57.614,4,3,4,2,3,4,4,3,4,4,4
2586,17:03:57.865,4,3,4,2,3,4,4,3,4,4,4
2587,17:03:58.113,4,3,4,2,3,4,4,3,4,4,4
2588,17:03:58.365,4,3,4,2,3,4,4,3,4,4,4
2589,17:03:58.629,4,3,4,2,3,4,4,3,4,4,4
2590,17:03:58.864,4,3,4,2,3,4,4,3,4,4,4
2591,17:03:59.113,4,3,4,2,3,4,4,3,4,4,4
2592,17:03:59.360,4,3,4,2,3,4,4,3,4,4,4
2593,17:03:59.616,4,3,4,2,3,4,4,3,4,4,4
2594,17:03:59.856,4,3,4,2,3,4,4,3,4,4,4
2595,17:04:00.116,4,3,4,2,3,4,4,3,4,4,4
2596,17:04:00.371,4,3,4,2,3,4,4,3,4,4,4
2597,17:04:49.080,1,1,2,3,3,1,2,4,2,3,1
2598,17:04:49.329,1,1,2,3,3,1,2,4,2,3,1
2599,17:04:49.578,1,1,2,3,3,1,2,4,2,3,1
2600,17:04:49.821,1,1,2,3,3,1,2,4,2,3,1
2601,17:04:50.080,1,1,2,3,3,1,2,4,2,3,1
2602,17:04:50.327,1,1,2,3,3,1,2,4,2,3,1
2603,17:04:50.572,1,1,2,3,3,1,2,4,2,3,1
2604,17:04:50.824,1,1,2,3,3,1,2,4,2,3,1
2605,17:04:51.078,1,1,2,3,3,1,2,4,2,3,1
2606,17:04:51.328,1,1,2,3,3,1,2,4,2,3,1
2607,17:04:51.577,1,1,2,3,3,1,2,4,2,3,1
2608,17:04:51.832,1,1,2,3,3,1,2,4,2,3,1
2609,17:04:52.079,1,1,2,3,3,1,2,4,2,3,1
2610,17:04:52.340,1,1,2,3,3,1,2,4,2,3,1
2611,17:04:52.578,1,1,2,3,3,1,2,4,2,3,1
2612,17:04:52.838,1,1,2,3,3,1,2,4,2,3,1
2613,17:04:53.104,1,1,2,3,3,1,2,4,2,3,1
2614,17:04:53.325,1,1,2,3,3,1,2,4,2,3,1
2615,17:04:53.582,1,1,2,3,3,1,2,4,2,3,1
2616,17:04:53.818,1,1,2,3,3,1,2,4,2,3,1
2617,17:04:54.076,1,1,2,3,3,1,2,4,2,3,1
2618,17:04:54.332,1,1,2,3,3,1,2,4,2,3,1
2619,17:04:54.576,1,1,2,3,3,1,2,4,2,3,1
2620,17:04:54.827,1,1,2,3,3,1,2,4,2,3,1
2621,17:04:55.078,1,1,2,3,3,1,2,4,2,3,1
2622,17:04:55.326,1,1,2,3,3,1,2,4,2,3,1
2623,17:04:55.576,1,1,2,3,3,1,2,4,2,3,1
2624,17:04:55.820,1,1,2,3,3,1,2,4,2,3,1
2625,17:04:56.077,1,1,2,3,3,1,2,4,2,3,1
2626,17:04:56.348,1,1,2,3,3,1,2,4,2,3,1
2627,17:04:56.578,1,1,2,3,3,1,2,4,2,3,1
2628,17:04:56.825,1,1,2,3,3,1,2,4,2,3,1
2629,17:04:57.076,1,1,2,3,3,1,2,4,2,3,1
2630,17:04:57.341,1,1,2,3,3,1,2,4,2,3,1
2631,17:04:57.573,1,1,2,3,3,1,2,4,2,3,1
2632,17:04:57.822,1,1,2,3,3,1,2,4,2,3,1
2633,17:04:58.071,1,1,2,3,3,1,2,4,2,3,1
2634,17:04:58.325,1,1,2,3,3,1,2,4,2,3,1
2635,17:04:58.571,1,1,2,3,3,1,2,4,2,3,1
2636,17:04:58.843,1,1,2,3,3,1,2,4,2,3,1
2637,17:04:59.073,1,1,2,3,3,1,2,4,2,3,1
2638,17:04:59.325,1,1,2,3,3,1,2,4,2,3,1
2639,17:04:59.571,1,1,2,3,3,1,2,4,2,3,1
2640,17:04:59.824,1,1,2,3,3,1,2,4,2,3,1
2641,17:05:00.074,1,1,2,3,3,1,2,4,2,3,1
2642,17:05:00.322,1,1,2,3,3,1,2,4,2,3,1
2643,17:05:00.572,1,1,2,3,3,1,2,4,2,3,1
2644,17:05:00.821,1,1,2,3,3,1,2,4,2,3,1
2645,17:05:01.072,1,1,2,3,3,1,2,4,2,3,1
2646,17:05:01.321,1,1,2,3,3,1,2,4,2,3,1
2647,17:05:01.570,1,1,2,3,3,1,2,4,2,3,1
2648,17:05:01.813,1,1,2,3,3,1,2,4,2,3,1
2649,17:05:02.072,1,1,2,3,3,1,2,4,2,3,1
2650,17:05:02.322,1,1,2,3,3,1,2,4,2,3,1
2651,17:05:02.573,1,1,2,3,3,1,2,4,2,3,1
2652,17:05:02.838,1,1,2,3,3,1,2,4,2,3,1
2653,17:05:03.069,1,1,2,3,3,1,2,4,2,3,1
2654,17:05:03.319,1,1,2,3,3,1,2,4,2,3,1
2655,17:05:03.571,1,1,2,3,3,1,2,4,2,3,1
2656,17:05:03.830,1,1,2,3,3,1,2,4,2,3,1
2657,17:05:04.069,1,1,2,3,3,1,2,4,2,3,1
2658,17:05:04.316,1,1,2,3,3,1,2,4,2,3,1
2659,17:05:04.567,1,1,2,3,3,1,2,4,2,3,1
2660,17:05:04.821,1,1,2,3,3,1,2,4,2,3,1
2661,17:05:05.067,1,1,2,3,3,1,2,4,2,3,1
2662,17:05:05.320,1,1,2,3,3,1,2,4,2,3,1
2663,17:05:05.566,1,1,2,3,3,1,2,4,2,3,1
2664,17:05:05.845,1,1,2,3,3,1,2,4,2,3,1
2665,17:05:06.068,1,1,2,3,3,1,2,4,2,3,1
2666,17:05:06.317,1,1,2,3,3,1,2,4,2,3,1
2667,17:05:06.570,1,1,2,3,3,1,2,4,2,3,1
2668,17:05:06.820,1,1,2,3,3,1,2,4,2,3,1
2669,17:05:07.067,1,1,2,3,3,1,2,4,2,3,1
2670,17:05:07.317,1,1,2,3,3,1,2,4,2,3,1
2671,17:05:07.569,1,1,2,3,3,1,2,4,2,3,1
2672,17:05:07.812,1,1,2,3,3,1,2,4,2,3,1
2673,17:05:08.071,1,1,2,3,3,1,2,4,2,3,1
2674,17:05:08.320,1,1,2,3,3,1,2,4,2,3,1
2675,17:05:08.567,1,1,2,3,3,1,2,4,2,3,1
2676,17:05:08.851,1,1,2,3,3,1,2,4,2,3,1
2677,17:05:09.059,1,1,2,3,3,1,2,4,2,3,1
2678,17:05:09.316,1,1,2,3,3,1,2,4,2,3,1
2679,17:05:09.572,1,1,2,3,3,1,2,4,2,3,1
2680,17:05:09.820,1,1,2,3,3,1,2,4,2,3,1
2681,17:05:10.063,1,1,2,3,3,1,2,4,2,3,1
2682,17:05:10.311,1,1,2,3,3,1,2,4,2,3,1
2683,17:05:10.564,1,1,2,3,3,1,2,4,2,3,1
2684,17:05:10.812,1,1,2,3,3,1,2,4,2,3,1
2685,17:05:11.064,1,1,2,3,3,1,2,4,2,3,1
2686,17:05:11.314,1,1,2,3,3,1,2,4,2,3,1
2687,17:05:11.563,1,1,2,3,3,1,2,4,2,3,1
2688,17:05:11.817,1,1,2,3,3,1,2,4,2,3,1
2689,17:05:12.061,1,1,2,3,3,1,2,4,2,3,1
2690,17:05:12.317,1,1,2,3,3,1,2,4,2,3,1
2691,17:05:12.564,1,1,2,3,3,1,2,4,2,3,1
2692,17:05:12.829,1,1,2,3,3,1,2,4,2,3,1
2693,17:05:13.061,1,1,2,3,3,1,2,4,2,3,1
2694,17:05:13.314,1,1,2,3,3,1,2,4,2,3,1
2695,17:05:13.594,1,1,2,3,3,1,2,4,2,3,1
2696,17:05:13.820,1,1,2,3,3,1,2,4,2,3,1
2697,17:05:14.063,1,1,2,3,3,1,2,4,2,3,1
2698,17:05:14.315,1,1,2,3,3,1,2,4,2,3,1
2699,17:05:14.564,1,1,2,3,3,1,2,4,2,3,1
2700,17:05:14.833,1,1,2,3,3,1,2,4,2,3,1
2701,17:05:15.064,1,1,2,3,3,1,2,4,2,3,1
2702,17:05:15.313,1,1,2,3,3,1,2,4,2,3,1
2703,17:05:15.560,1,1,2,3,3,1,2,4,2,3,1
2704,17:05:15.810,1,1,2,3,3,1,2,4,2,3,1
2705,17:05:16.080,1,1,2,3,3,1,2,4,2,3,1
2706,17:05:16.318,1,1,2,3,3,1,2,4,2,3,1
2707,17:05:16.562,1,1,2,3,3,1,2,4,2,3,1
2708,17:05:16.811,1,1,2,3,3,1,2,4,2,3,1
2709,17:05:17.061,1,1,2,3,3,1,2,4,2,3,1
2710,17:05:17.312,1,1,2,3,3,1,2,4,2,3,1
2711,17:05:17.561,1,1,2,3,3,1,2,4,2,3,1
2712,17:05:17.812,1,1,2,3,3,1,2,4,2,3,1
2713,17:05:18.060,1,1,2,3,3,1,2,4,2,3,1
2714,17:05:18.310,1,1,2,3,3,1,2,4,2,3,1
2715,17:05:18.566,1,1,2,3,3,1,2,4,2,3,1
2716,17:05:18.811,1,1,2,3,3,1,2,4,2,3,1
2717,17:05:19.062,1,1,2,3,3,1,2,4,2,3,1
2718,17:05:19.308,1,1,2,3,3,1,2,4,2,3,1
2719,17:05:19.559,1,1,2,3,3,1,2,4,2,3,1
2720,17:05:19.809,1,1,2,3,3,1,2,4,2,3,1
2721,17:05:20.060,1,1,2,3,3,1,2,4,2,3,1
2722,17:05:20.310,1,1,2,3,3,1,2,4,2,3,1
2723,17:05:20.561,1,1,2,3,3,1,2,4,2,3,1
2724,17:05:20.826,1,1,2,3,3,1,2,4,2,3,1
2725,17:05:21.060,1,1,2,3,3,1,2,4,2,3,1
2726,17:05:21.315,1,1,2,3,3,1,2,4,2,3,1
2727,17:05:21.553,1,1,2,3,3,1,2,4,2,3,1
2728,17:05:21.808,1,1,2,3,3,1,2,4,2,3,1
2729,17:05:22.059,1,1,2,3,3,1,2,4,2,3,1
2730,17:05:22.307,1,1,2,3,3,1,2,4,2,3,1
2731,17:05:22.559,1,1,2,3,3,1,2,4,2,3,1
2732,17:05:22.829,1,1,2,3,3,1,2,4,2,3,1
2733,17:05:23.059,1,1,2,3,3,1,2,4,2,3,1
2734,17:05:23.310,1,1,2,3,3,1,2,4,2,3,1
2735,17:05:23.588,1,1,2,3,3,1,2,4,2,3,1
2736,17:05:23.808,1,1,2,3,3,1,2,4,2,3,1
2737,17:05:24.056,1,1,2,3,3,1,2,4,2,3,1
2738,17:05:24.305,1,1,2,3,3,1,2,4,2,3,1
2739,17:05:24.556,1,1,2,3,3,1,2,4,2,3,1
2740,17:05:24.822,1,1,2,3,3,1,2,4,2,3,1
2741,17:05:25.055,1,1,2,3,3,1,2,4,2,3,1
2742,17:05:25.304,1,1,2,3,3,1,2,4,2,3,1
2743,17:05:25.550,1,1,2,3,3,1,2,4,2,3,1
2744,17:05:25.805,1,1,2,3,3,1,2,4,2,3,1
2745,17:05:26.058,1,1,2,3,3,1,2,4,2,3,1
2746,17:05:26.307,1,1,2,3,3,1,2,4,2,3,1
2747,17:05:26.556,1,1,2,3,3,1,2,4,2,3,1
2748,17:05:26.805,1,1,2,3,3,1,2,4,2,3,1
2749,17:05:27.058,1,1,2,3,3,1,2,4,2,3,1
2750,17:05:27.304,1,1,2,3,3,1,2,4,2,3,1
2751,17:05:27.556,1,1,2,3,3,1,2,4,2,3,1
2752,17:05:27.807,1,1,2,3,3,1,2,4,2,3,1
2753,17:05:28.057,1,1,2,3,3,1,2,4,2,3,1
2754,17:05:28.305,1,1,2,3,3,1,2,4,2,3,1
2755,17:05:28.556,1,1,2,3,3,1,2,4,2,3,1
2756,17:05:28.803,1,1,2,3,3,1,2,4,2,3,1
2757,17:05:29.055,1,1,2,3,3,1,2,4,2,3,1
2758,17:05:29.293,1,1,2,3,3,1,2,4,2,3,1
2759,17:05:29.555,1,1,2,3,3,1,2,4,2,3,1
2760,17:05:29.803,1,1,2,3,3,1,2,4,2,3,1
2761,17:05:30.053,1,1,2,3,3,1,2,4,2,3,1
2762,17:05:30.303,1,1,2,3,3,1,2,4,2,3,1
2763,17:05:30.552,1,1,2,3,3,1,2,4,2,3,1
2764,17:05:30.801,1,1,2,3,3,1,2,4,2,3,1
2765,17:05:31.084,1,1,2,3,3,1,2,4,2,3,1
2766,17:05:31.299,1,1,2,3,3,1,2,4,2,3,1
2767,17:05:31.551,1,1,2,3,3,1,2,4,2,3,1
2768,17:05:31.800,1,1,2,3,3,1,2,4,2,3,1
2769,17:05:32.049,1,1,2,3,3,1,2,4,2,3,1
2770,17:05:32.299,1,1,2,3,3,1,2,4,2,3,1
2771,17:05:32.551,1,1,2,3,3,1,2,4,2,3,1
2772,17:05:32.798,1,1,2,3,3,1,2,4,2,3,1
2773,17:05:33.054,1,1,2,3,3,1,2,4,2,3,1
2774,17:05:33.302,1,1,2,3,3,1,2,4,2,3,1
2775,17:05:33.551,1,1,2,3,3,1,2,4,2,3,1
2776,17:05:33.800,1,1,2,3,3,1,2,4,2,3,1
2777,17:05:34.048,1,1,2,3,3,1,2,4,2,3,1
2778,17:05:34.297,1,1,2,3,3,1,2,4,2,3,1
2779,17:05:34.549,1,1,2,3,3,1,2,4,2,3,1
2780,17:05:34.800,1,1,2,3,3,1,2,4,2,3,1
2781,17:05:35.050,1,1,2,3,3,1,2,4,2,3,1
2782,17:05:35.298,1,1,2,3,3,1,2,4,2,3,1
2783,17:05:35.551,1,1,2,3,3,1,2,4,2,3,1
2784,17:05:35.801,1,1,2,3,3,1,2,4,2,3,1
2785,17:05:36.047,1,1,2,3,3,1,2,4,2,3,1
2786,17:05:36.302,1,1,2,3,3,1,2,4,2,3,1
2787,17:05:36.552,1,1,2,3,3,1,2,4,2,3,1
2788,17:05:36.797,1,1,2,3,3,1,2,4,2,3,1
2789,17:05:37.049,1,1,2,3,3,1,2,4,2,3,1
2790,17:05:37.298,1,1,2,3,3,1,2,4,2,3,1
2791,17:05:37.550,1,1,2,3,3,1,2,4,2,3,1
2792,17:05:37.797,1,1,2,3,3,1,2,4,2,3,1
2793,17:05:38.046,1,1,2,3,3,1,2,4,2,3,1
2794,17:05:38.300,1,1,2,3,3,1,2,4,2,3,1
2795,17:05:38.548,1,1,2,3,3,1,2,4,2,3,1
2796,17:05:38.798,1,1,2,3,3,1,2,4,2,3,1
2797,17:05:39.049,1,1,2,3,3,1,2,4,2,3,1
2798,17:05:39.303,1,1,2,3,3,1,2,4,2,3,1
2799,17:05:39.546,1,1,2,3,3,1,2,4,2,3,1
2800,17:05:39.796,1,1,2,3,3,1,2,4,2,3,1
2801,17:05:40.047,1,1,2,3,3,1,2,4,2,3,1
2802,17:05:40.309,1,1,2,3,3,1,2,4,2,3,1
2803,17:05:40.546,1,1,2,3,3,1,2,4,2,3,1
2804,17:05:40.795,1,1,2,3,3,1,2,4,2,3,1
2805,17:05:41.044,1,1,2,3,3,1,2,4,2,3,1
2806,17:05:41.296,1,1,2,3,3,1,2,4,2,3,1
2807,17:05:41.544,1,1,2,3,3,1,2,4,2,3,1
2808,17:05:41.796,1,1,2,3,3,1,2,4,2,3,1
2809,17:05:42.043,1,1,2,3,3,1,2,4,2,3,1
2810,17:05:42.308,1,1,2,3,3,1,2,4,2,3,1
2811,17:05:42.543,1,1,2,3,3,1,2,4,2,3,1
2812,17:05:42.793,1,1,2,3,3,1,2,4,2,3,1
2813,17:05:43.043,1,1,2,3,3,1,2,4,2,3,1
2814,17:05:43.294,1,1,2,3,3,1,2,4,2,3,1
2815,17:05:43.545,1,1,2,3,3,1,2,4,2,3,1
2816,17:05:43.783,1,1,2,3,3,1,2,4,2,3,1
2817,17:05:44.044,1,1,2,3,3,1,2,4,2,3,1
2818,17:05:44.296,1,1,2,3,3,1,2,4,2,3,1
2819,17:05:44.542,1,1,2,3,3,1,2,4,2,3,1
2820,17:05:44.793,1,1,2,3,3,1,2,4,2,3,1
2821,17:05:45.039,1,1,2,3,3,1,2,4,2,3,1
2822,17:05:45.298,1,1,2,3,3,1,2,4,2,3,1
2823,17:05:45.546,1,1,2,3,3,1,2,4,2,3,1
2824,17:05:45.794,1,1,2,3,3,1,2,4,2,3,1
2825,17:05:46.041,1,1,2,3,3,1,2,4,2,3,1
2826,17:05:46.295,1,1,2,3,3,1,2,4,2,3,1
2827,17:05:46.542,1,1,2,3,3,1,2,4,2,3,1
2828,17:05:46.793,1,1,2,3,3,1,2,4,2,3,1
2829,17:05:47.042,1,1,2,3,3,1,2,4,2,3,1
2830,17:05:47.290,1,1,2,3,3,1,2,4,2,3,1
2831,17:05:47.543,1,1,2,3,3,1,2,4,2,3,1
2832,17:05:47.790,1,1,2,3,3,1,2,4,2,3,1
2833,17:05:48.041,1,1,2,3,3,1,2,4,2,3,1
2834,17:05:48.293,1,1,2,3,3,1,2,4,2,3,1
2835,17:05:48.541,1,1,2,3,3,1,2,4,2,3,1
2836,17:05:48.792,1,1,2,3,3,1,2,4,2,3,1
2837,17:05:49.054,1,1,2,3,3,1,2,4,2,3,1
2838,17:05:49.295,1,1,2,3,3,1,2,4,2,3,1
2839,17:05:49.542,1,1,2,3,3,1,2,4,2,3,1
2840,17:05:49.792,1,1,2,3,3,1,2,4,2,3,1
2841,17:05:50.046,1,1,2,3,3,1,2,4,2,3,1
2842,17:05:50.291,1,1,2,3,3,1,2,4,2,3,1
2843,17:05:50.538,1,1,2,3,3,1,2,4,2,3,1
2844,17:05:50.801,1,1,2,3,3,1,2,4,2,3,1
2845,17:05:51.034,1,1,2,3,3,1,2,4,2,3,1
2846,17:05:51.287,1,1,2,3,3,1,2,4,2,3,1
2847,17:05:51.539,1,1,2,3,3,1,2,4,2,3,1
2848,17:05:51.791,1,1,2,3,3,1,2,4,2,3,1
2849,17:05:52.040,1,1,2,3,3,1,2,4,2,3,1
2850,17:05:52.290,1,1,2,3,3,1,2,4,2,3,1
2851,17:05:52.539,1,1,2,3,3,1,2,4,2,3,1
2852,17:05:52.779,1,1,2,3,3,1,2,4,2,3,1
2853,17:05:53.037,1,1,2,3,3,1,2,4,2,3,1
2854,17:05:53.289,1,1,2,3,3,1,2,4,2,3,1
2855,17:05:53.537,1,1,2,3,3,1,2,4,2,3,1
2856,17:05:53.788,1,1,2,3,3,1,2,4,2,3,1
2857,17:05:54.040,1,1,2,3,3,1,2,4,2,3,1
2858,17:05:54.285,1,1,2,3,3,1,2,4,2,3,1
2859,17:05:54.534,1,1,2,3,3,1,2,4,2,3,1
2860,17:05:54.784,1,1,2,3,3,1,2,4,2,3,1
2861,17:05:55.049,1,1,2,3,3,1,2,4,2,3,1
2862,17:05:55.283,1,1,2,3,3,1,2,4,2,3,1
2863,17:05:55.533,1,1,2,3,3,1,2,4,2,3,1
2864,17:05:55.782,1,1,2,3,3,1,2,4,2,3,1
2865,17:05:56.034,1,1,2,3,3,1,2,4,2,3,1
2866,17:05:56.283,1,1,2,3,3,1,2,4,2,3,1
2867,17:05:56.535,1,1,2,3,3,1,2,4,2,3,1
2868,17:05:56.787,1,1,2,3,3,1,2,4,2,3,1
2869,17:05:57.035,1,1,2,3,3,1,2,4,2,3,1
2870,17:05:57.284,1,1,2,3,3,1,2,4,2,3,1
2871,17:05:57.535,1,1,2,3,3,1,2,4,2,3,1
2872,17:05:57.785,1,1,2,3,3,1,2,4,2,3,1
2873,17:05:58.039,1,1,2,3,3,1,2,4,2,3,1
2874,17:05:58.283,1,1,2,3,3,1,2,4,2,3,1
2875,17:05:58.532,1,1,2,3,3,1,2,4,2,3,1
2876,17:05:58.783,1,1,2,3,3,1,2,4,2,3,1
2877,17:05:59.032,1,1,2,3,3,1,2,4,2,3,1
2878,17:05:59.282,1,1,2,3,3,1,2,4,2,3,1
2879,17:05:59.530,1,1,2,3,3,1,2,4,2,3,1
2880,17:05:59.783,1,1,2,3,3,1,2,4,2,3,1
2881,17:06:00.033,1,1,2,3,3,1,2,4,2,3,1
2882,17:06:00.282,1,1,2,3,3,1,2,4,2,3,1
2883,17:06:00.531,1,1,2,3,3,1,2,4,2,3,1
2884,17:06:00.780,1,1,2,3,3,1,2,4,2,3,1
2885,17:06:01.030,1,1,2,3,3,1,2,4,2,3,1
2886,17:06:01.281,1,1,2,3,3,1,2,4,2,3,1
2887,17:06:01.530,1,1,2,3,3,1,2,4,2,3,1
2888,17:06:01.779,1,1,2,3,3,1,2,4,2,3,1
2889,17:06:02.025,1,1,2,3,3,1,2,4,2,3,1
2890,17:06:02.284,1,1,2,3,3,1,2,4,2,3,1
2891,17:06:02.529,1,1,2,3,3,1,2,4,2,3,1
2892,17:06:02.779,1,1,2,3,3,1,2,4,2,3,1
2893,17:06:03.031,1,1,2,3,3,1,2,4,2,3,1
2894,17:06:03.279,1,1,2,3,3,1,2,4,2,3,1
2895,17:06:03.531,1,1,2,3,3,1,2,4,2,3,1
2896,17:06:03.783,1,1,2,3,3,1,2,4,2,3,1
2897,17:06:04.029,1,1,2,3,3,1,2,4,2,3,1
2898,17:06:04.278,1,1,2,3,3,1,2,4,2,3,1
2899,17:06:04.529,1,1,2,3,3,1,2,4,2,3,1
2900,17:06:04.784,1,1,2,3,3,1,2,4,2,3,1
2901,17:06:05.030,1,1,2,3,3,1,2,4,2,3,1
2902,17:06:05.279,1,1,2,3,3,1,2,4,2,3,1
2903,17:06:05.530,1,1,2,3,3,1,2,4,2,3,1
2904,17:06:05.782,1,1,2,3,3,1,2,4,2,3,1
2905,17:06:06.035,1,1,2,3,3,1,2,4,2,3,1
2906,17:06:06.280,1,1,2,3,3,1,2,4,2,3,1
2907,17:06:06.524,1,1,2,3,3,1,2,4,2,3,1
2908,17:06:06.776,1,1,2,3,3,1,2,4,2,3,1
2909,17:06:07.026,1,1,2,3,3,1,2,4,2,3,1
2910,17:06:07.277,1,1,2,3,3,1,2,4,2,3,1
2911,17:06:07.527,1,1,2,3,3,1,2,4,2,3,1
2912,17:06:07.776,1,1,2,3,3,1,2,4,2,3,1
2913,17:06:08.026,1,1,2,3,3,1,2,4,2,3,1
2914,17:06:08.315,1,1,2,3,3,1,2,4,2,3,1
2915,17:06:08.528,1,1,2,3,3,1,2,4,2,3,1
2916,17:06:08.776,1,1,2,3,3,1,2,4,2,3,1
2917,17:06:09.048,1,1,2,3,3,1,2,4,2,3,1
2918,17:06:09.275,1,1,2,3,3,1,2,4,2,3,1
2919,17:06:09.524,1,1,2,3,3,1,2,4,2,3,1
2920,17:06:09.813,1,1,2,3,3,1,2,4,2,3,1
2921,17:06:10.026,1,1,2,3,3,1,2,4,2,3,1
2922,17:06:10.276,1,1,2,3,3,1,2,4,2,3,1
2923,17:06:10.526,1,1,2,3,3,1,2,4,2,3,1
2924,17:06:10.773,1,1,2,3,3,1,2,4,2,3,1
2925,17:06:11.025,1,1,2,3,3,1,2,4,2,3,1
2926,17:06:11.273,1,1,2,3,3,1,2,4,2,3,1
2927,17:06:11.522,1,1,2,3,3,1,2,4,2,3,1
2928,17:06:11.773,1,1,2,3,3,1,2,4,2,3,1
2929,17:06:12.023,1,1,2,3,3,1,2,4,2,3,1
2930,17:06:12.274,1,1,2,3,3,1,2,4,2,3,1
2931,17:06:12.525,1,1,2,3,3,1,2,4,2,3,1
2932,17:06:12.773,1,1,2,3,3,1,2,4,2,3,1
2933,17:06:13.022,1,1,2,3,3,1,2,4,2,3,1
2934,17:06:13.270,1,1,2,3,3,1,2,4,2,3,1
2935,17:06:13.526,1,1,2,3,3,1,2,4,2,3,1
2936,17:06:13.771,1,1,2,3,3,1,2,4,2,3,1
2937,17:06:14.024,1,1,2,3,3,1,2,4,2,3,1
2938,17:06:14.271,1,1,2,3,3,1,2,4,2,3,1
2939,17:06:14.522,1,1,2,3,3,1,2,4,2,3,1
2940,17:06:14.772,1,1,2,3,3,1,2,4,2,3,1
2941,17:06:15.021,1,1,2,3,3,1,2,4,2,3,1
2942,17:06:15.271,1,1,2,3,3,1,2,4,2,3,1
2943,17:06:15.523,1,1,2,3,3,1,2,4,2,3,1
2944,17:06:15.770,1,1,2,3,3,1,2,4,2,3,1
2945,17:06:16.026,1,1,2,3,3,1,2,4,2,3,1
2946,17:06:16.272,1,1,2,3,3,1,2,4,2,3,1
2947,17:06:16.518,1,1,2,3,3,1,2,4,2,3,1
2948,17:06:16.768,1,1,2,3,3,1,2,4,2,3,1
2949,17:06:17.020,1,1,2,3,3,1,2,4,2,3,1
2950,17:06:17.272,1,1,2,3,3,1,2,4,2,3,1
2951,17:06:17.524,1,1,2,3,3,1,2,4,2,3,1
2952,17:06:17.770,1,1,2,3,3,1,2,4,2,3,1
2953,17:06:18.019,1,1,2,3,3,1,2,4,2,3,1
2954,17:06:18.270,1,1,2,3,3,1,2,4,2,3,1
2955,17:06:18.516,1,1,2,3,3,1,2,4,2,3,1
2956,17:06:18.769,1,1,2,3,3,1,2,4,2,3,1
2957,17:06:19.022,1,1,2,3,3,1,2,4,2,3,1
2958,17:06:19.266,1,1,2,3,3,1,2,4,2,3,1
2959,17:06:19.525,1,1,2,3,3,1,2,4,2,3,1
2960,17:06:19.774,1,1,2,3,3,1,2,4,2,3,1
2961,17:06:20.025,1,1,2,3,3,1,2,4,2,3,1
2962,17:06:20.267,1,1,2,3,3,1,2,4,2,3,1
2963,17:06:20.509,1,1,2,3,3,1,2,4,2,3,1
2964,17:06:20.782,1,1,2,3,3,1,2,4,2,3,1
2965,17:06:21.014,1,1,2,3,3,1,2,4,2,3,1
2966,17:06:21.266,1,1,2,3,3,1,2,4,2,3,1
2967,17:06:21.518,1,1,2,3,3,1,2,4,2,3,1
2968,17:06:21.766,1,1,2,3,3,1,2,4,2,3,1
2969,17:06:22.015,1,1,2,3,3,1,2,4,2,3,1
2970,17:06:22.266,1,1,2,3,3,1,2,4,2,3,1
2971,17:06:22.522,1,1,2,3,3,1,2,4,2,3,1
2972,17:06:22.767,1,1,2,3,3,1,2,4,2,3,1
2973,17:06:23.017,1,1,2,3,3,1,2,4,2,3,1
2974,17:06:23.265,1,1,2,3,3,1,2,4,2,3,1
2975,17:06:23.514,1,1,2,3,3,1,2,4,2,3,1
2976,17:06:23.766,1,1,2,3,3,1,2,4,2,3,1
2977,17:06:24.015,1,1,2,3,3,1,2,4,2,3,1
2978,17:06:24.262,1,1,2,3,3,1,2,4,2,3,1
2979,17:06:24.515,1,1,2,3,3,1,2,4,2,3,1
2980,17:06:24.765,1,1,2,3,3,1,2,4,2,3,1
2981,17:06:25.015,1,1,2,3,3,1,2,4,2,3,1
2982,17:06:25.265,1,1,2,3,3,1,2,4,2,3,1
2983,17:06:25.522,1,1,2,3,3,1,2,4,2,3,1
2984,17:06:25.767,1,1,2,3,3,1,2,4,2,3,1
2985,17:06:26.005,1,1,2,3,3,1,2,4,2,3,1
2986,17:06:26.270,1,1,2,3,3,1,2,4,2,3,1
2987,17:06:26.515,1,1,2,3,3,1,2,4,2,3,1
2988,17:06:26.763,1,1,2,3,3,1,2,4,2,3,1
2989,17:06:27.013,1,1,2,3,3,1,2,4,2,3,1
2990,17:06:27.265,1,1,2,3,3,1,2,4,2,3,1
2991,17:06:27.532,1,1,2,3,3,1,2,4,2,3,1
2992,17:06:27.763,1,1,2,3,3,1,2,4,2,3,1
2993,17:06:28.012,1,1,2,3,3,1,2,4,2,3,1
2994,17:06:28.261,1,1,2,3,3,1,2,4,2,3,1
2995,17:06:28.511,1,1,2,3,3,1,2,4,2,3,1
2996,17:06:28.762,1,1,2,3,3,1,2,4,2,3,1
2997,17:06:29.016,1,1,2,3,3,1,2,4,2,3,1
2998,17:06:29.262,1,1,2,3,3,1,2,4,2,3,1
2999,17:06:29.514,1,1,2,3,3,1,2,4,2,3,1
3000,17:06:29.761,1,1,2,3,3,1,2,4,2,3,1
3001,17:06:30.011,1,1,2,3,3,1,2,4,2,3,1
3002,17:06:30.262,1,1,2,3,3,1,2,4,2,3,1
3003,17:06:30.512,1,1,2,3,3,1,2,4,2,3,1
3004,17:06:30.762,1,1,2,3,3,1,2,4,2,3,1
3005,17:06:31.013,1,1,2,3,3,1,2,4,2,3,1
3006,17:06:31.261,1,1,2,3,3,1,2,4,2,3,1
3007,17:06:31.511,1,1,2,3,3,1,2,4,2,3,1
3008,17:06:31.759,1,1,2,3,3,1,2,4,2,3,1
3009,17:06:32.011,1,1,2,3,3,1,2,4,2,3,1
3010,17:06:32.260,1,1,2,3,3,1,2,4,2,3,1
3011,17:06:32.499,1,1,2,3,3,1,2,4,2,3,1
3012,17:06:32.758,1,1,2,3,3,1,2,4,2,3,1
3013,17:06:33.008,1,1,2,3,3,1,2,4,2,3,1
3014,17:06:33.259,1,1,2,3,3,1,2,4,2,3,1
3015,17:06:33.510,1,1,2,3,3,1,2,4,2,3,1
3016,17:06:33.757,1,1,2,3,3,1,2,4,2,3,1
3017,17:06:34.012,1,1,2,3,3,1,2,4,2,3,1
3018,17:06:34.257,1,1,2,3,3,1,2,4,2,3,1
3019,17:06:34.526,1,1,2,3,3,1,2,4,2,3,1
3020,17:06:34.758,1,1,2,3,3,1,2,4,2,3,1
3021,17:06:35.008,1,1,2,3,3,1,2,4,2,3,1
3022,17:06:35.257,1,1,2,3,3,1,2,4,2,3,1
3023,17:06:35.507,1,1,2,3,3,1,2,4,2,3,1
3024,17:06:35.757,1,1,2,3,3,1,2,4,2,3,1
