,JST,MeanF1,MeanF2,MeanF3
0,50:09.6,2.57143,3.66667,4
1,50:09.8,2.57143,3.66667,4
2,50:10.1,2.57143,3.66667,4
3,50:10.3,2.57143,3.66667,4
4,50:10.6,2.57143,3.66667,4
5,50:10.8,2.57143,3.66667,4
6,50:11.1,2.57143,3.66667,4
7,50:11.3,2.57143,3.66667,4
8,50:11.6,2.57143,3.66667,4
9,50:11.8,2.57143,3.66667,4
10,50:12.1,2.57143,3.66667,4
11,50:12.3,2.57143,3.66667,4
12,50:12.6,2.57143,3.66667,4
13,50:12.8,2.57143,3.66667,4
14,50:13.1,2.57143,3.66667,4
15,50:13.3,2.57143,3.66667,4
16,50:13.5,2.57143,3.66667,4
17,50:13.8,2.57143,3.66667,4
18,50:14.1,2.57143,3.66667,4
19,50:14.3,2.57143,3.66667,4
20,50:14.6,2.57143,3.66667,4
21,50:14.8,2.57143,3.66667,4
22,50:15.1,2.57143,3.66667,4
23,50:15.3,2.57143,3.66667,4
24,50:15.5,2.57143,3.66667,4
25,50:15.8,2.57143,3.66667,4
26,50:16.1,2.57143,3.66667,4
27,50:16.3,2.57143,3.66667,4
28,50:16.6,2.57143,3.66667,4
29,50:16.8,2.57143,3.66667,4
30,50:17.1,2.57143,3.66667,4
31,50:17.3,2.57143,3.66667,4
32,50:17.6,2.57143,3.66667,4
33,50:17.8,2.57143,3.66667,4
34,50:18.1,2.57143,3.66667,4
35,50:18.3,2.57143,3.66667,4
36,50:18.6,2.57143,3.66667,4
37,50:18.8,2.57143,3.66667,4
38,50:19.1,2.57143,3.66667,4
39,50:19.3,2.57143,3.66667,4
40,50:19.5,2.57143,3.66667,4
41,50:19.8,2.57143,3.66667,4
42,50:20.0,2.57143,3.66667,4
43,50:20.3,2.57143,3.66667,4
44,50:20.5,2.57143,3.66667,4
45,50:20.8,2.57143,3.66667,4
46,50:21.1,2.57143,3.66667,4
47,50:21.3,2.57143,3.66667,4
48,50:21.5,2.57143,3.66667,4
49,50:21.8,2.57143,3.66667,4
50,50:22.0,2.57143,3.66667,4
51,50:22.3,2.57143,3.66667,4
52,50:22.5,2.57143,3.66667,4
53,50:22.8,2.57143,3.66667,4
54,50:23.0,2.57143,3.66667,4
55,50:23.3,2.57143,3.66667,4
56,50:23.5,2.57143,3.66667,4
57,50:23.8,2.57143,3.66667,4
58,50:24.0,2.57143,3.66667,4
59,50:24.3,2.57143,3.66667,4
60,50:24.6,2.57143,3.66667,4
61,50:24.8,2.57143,3.66667,4
62,50:25.0,2.57143,3.66667,4
63,50:25.3,2.57143,3.66667,4
64,50:25.5,2.57143,3.66667,4
65,50:25.8,2.57143,3.66667,4
66,50:26.0,2.57143,3.66667,4
67,50:26.3,2.57143,3.66667,4
68,50:26.5,2.57143,3.66667,4
69,50:26.8,2.57143,3.66667,4
70,50:27.0,2.57143,3.66667,4
71,50:27.3,2.57143,3.66667,4
72,50:27.5,2.57143,3.66667,4
73,50:27.8,2.57143,3.66667,4
74,50:28.0,2.57143,3.66667,4
75,50:28.3,2.57143,3.66667,4
76,50:28.5,2.57143,3.66667,4
77,50:28.8,2.57143,3.66667,4
78,50:29.0,2.57143,3.66667,4
79,50:29.3,2.57143,3.66667,4
80,50:29.5,2.57143,3.66667,4
81,50:29.8,2.57143,3.66667,4
82,50:30.0,2.57143,3.66667,4
83,50:30.3,2.57143,3.66667,4
84,50:30.5,2.57143,3.66667,4
85,50:30.8,2.57143,3.66667,4
86,50:31.0,2.57143,3.66667,4
87,50:31.3,2.57143,3.66667,4
88,50:31.5,2.57143,3.66667,4
89,50:31.8,2.57143,3.66667,4
90,50:32.0,2.57143,3.66667,4
91,50:32.3,2.57143,3.66667,4
92,50:32.5,2.57143,3.66667,4
93,50:32.8,2.57143,3.66667,4
94,50:33.0,2.57143,3.66667,4
95,50:33.3,2.57143,3.66667,4
96,50:33.6,2.57143,3.66667,4
97,50:33.8,2.57143,3.66667,4
98,50:34.0,2.57143,3.66667,4
99,50:34.3,2.57143,3.66667,4
100,50:34.5,2.57143,3.66667,4
101,50:34.8,2.57143,3.66667,4
102,50:35.1,2.57143,3.66667,4
103,50:35.3,2.57143,3.66667,4
104,50:35.5,2.57143,3.66667,4
105,50:35.8,2.57143,3.66667,4
106,50:36.0,2.57143,3.66667,4
107,50:36.3,2.57143,3.66667,4
108,50:36.5,2.57143,3.66667,4
109,50:36.8,2.57143,3.66667,4
110,50:37.0,2.57143,3.66667,4
111,50:37.3,2.57143,3.66667,4
112,50:37.6,2.57143,3.66667,4
113,50:37.8,2.57143,3.66667,4
114,50:38.0,2.57143,3.66667,4
115,50:38.3,2.57143,3.66667,4
116,50:38.5,2.57143,3.66667,4
117,50:38.8,2.57143,3.66667,4
118,50:39.0,2.57143,3.66667,4
119,50:39.3,2.57143,3.66667,4
120,50:39.6,2.57143,3.66667,4
121,50:39.8,2.57143,3.66667,4
122,50:40.0,2.57143,3.66667,4
123,50:40.3,2.57143,3.66667,4
124,50:40.5,2.57143,3.66667,4
125,50:40.8,2.57143,3.66667,4
126,50:41.0,2.57143,3.66667,4
127,50:41.3,2.57143,3.66667,4
128,50:41.5,2.57143,3.66667,4
129,50:41.8,2.57143,3.66667,4
130,50:42.0,2.57143,3.66667,4
131,50:42.3,2.57143,3.66667,4
132,50:42.5,2.57143,3.66667,4
133,50:42.8,2.57143,3.66667,4
134,50:43.0,2.57143,3.66667,4
135,50:43.3,2.57143,3.66667,4
136,50:43.5,2.57143,3.66667,4
137,50:43.8,2.57143,3.66667,4
138,50:44.0,2.57143,3.66667,4
139,50:44.3,2.57143,3.66667,4
140,50:44.5,2.57143,3.66667,4
141,50:44.8,2.57143,3.66667,4
142,50:45.0,2.57143,3.66667,4
143,50:45.3,2.57143,3.66667,4
144,50:45.5,2.57143,3.66667,4
145,50:45.8,2.57143,3.66667,4
146,50:46.0,2.57143,3.66667,4
147,50:46.3,2.57143,3.66667,4
148,50:46.5,2.57143,3.66667,4
149,50:46.8,2.57143,3.66667,4
150,50:47.0,2.57143,3.66667,4
151,50:47.3,2.57143,3.66667,4
152,50:47.5,2.57143,3.66667,4
153,50:47.8,2.57143,3.66667,4
154,50:48.0,2.57143,3.66667,4
155,50:48.3,2.57143,3.66667,4
156,50:48.5,2.57143,3.66667,4
157,50:48.8,2.57143,3.66667,4
158,50:49.0,2.57143,3.66667,4
159,50:49.3,2.57143,3.66667,4
160,50:49.5,2.57143,3.66667,4
161,50:49.8,2.57143,3.66667,4
162,50:50.0,2.57143,3.66667,4
163,50:50.3,2.57143,3.66667,4
164,50:50.5,2.57143,3.66667,4
165,50:50.8,2.57143,3.66667,4
166,50:51.0,2.57143,3.66667,4
167,50:51.3,2.57143,3.66667,4
168,50:51.5,2.57143,3.66667,4
169,50:51.8,2.57143,3.66667,4
170,50:52.0,2.57143,3.66667,4
171,50:52.3,2.57143,3.66667,4
172,50:52.5,2.57143,3.66667,4
173,50:52.8,2.57143,3.66667,4
174,50:53.0,2.57143,3.66667,4
175,50:53.3,2.57143,3.66667,4
176,50:53.5,2.57143,3.66667,4
177,50:53.8,2.57143,3.66667,4
178,50:54.0,2.57143,3.66667,4
179,50:54.3,2.57143,3.66667,4
180,50:54.5,2.57143,3.66667,4
181,50:54.8,2.57143,3.66667,4
182,50:55.0,2.57143,3.66667,4
183,50:55.3,2.57143,3.66667,4
184,50:55.5,2.57143,3.66667,4
185,50:55.8,2.57143,3.66667,4
186,50:56.0,2.57143,3.66667,4
187,50:56.3,2.57143,3.66667,4
188,50:56.5,2.57143,3.66667,4
189,50:56.8,2.57143,3.66667,4
190,50:57.0,2.57143,3.66667,4
191,50:57.3,2.57143,3.66667,4
192,50:57.5,2.57143,3.66667,4
193,50:57.8,2.57143,3.66667,4
194,50:58.0,2.57143,3.66667,4
195,50:58.3,2.57143,3.66667,4
196,50:58.5,2.57143,3.66667,4
197,50:58.8,2.57143,3.66667,4
198,50:59.0,2.57143,3.66667,4
199,50:59.3,2.57143,3.66667,4
200,50:59.5,2.57143,3.66667,4
201,50:59.8,2.57143,3.66667,4
202,51:00.0,2.57143,3.66667,4
203,51:00.3,2.57143,3.66667,4
204,51:00.5,2.57143,3.66667,4
205,51:00.8,2.57143,3.66667,4
206,51:01.0,2.57143,3.66667,4
207,51:01.3,2.57143,3.66667,4
208,51:01.5,2.57143,3.66667,4
209,51:01.8,2.57143,3.66667,4
210,51:02.0,2.57143,3.66667,4
211,51:02.3,2.57143,3.66667,4
212,51:02.5,2.57143,3.66667,4
213,51:02.8,2.57143,3.66667,4
214,51:03.0,2.57143,3.66667,4
215,51:03.3,2.57143,3.66667,4
216,51:03.5,2.57143,3.66667,4
217,51:03.8,2.57143,3.66667,4
218,51:04.0,2.57143,3.66667,4
219,51:04.3,2.57143,3.66667,4
220,51:04.5,2.57143,3.66667,4
221,51:04.8,2.57143,3.66667,4
222,51:05.0,2.57143,3.66667,4
223,51:05.3,2.57143,3.66667,4
224,51:05.5,2.57143,3.66667,4
225,51:05.8,2.57143,3.66667,4
226,51:06.0,2.57143,3.66667,4
227,51:06.3,2.57143,3.66667,4
228,51:06.5,2.57143,3.66667,4
229,51:06.8,2.57143,3.66667,4
230,51:07.0,2.57143,3.66667,4
231,51:07.3,2.57143,3.66667,4
232,51:07.5,2.57143,3.66667,4
233,51:07.8,2.57143,3.66667,4
234,51:08.0,2.57143,3.66667,4
235,51:08.3,2.57143,3.66667,4
236,51:08.5,2.57143,3.66667,4
237,51:08.8,2.57143,3.66667,4
238,51:09.0,2.57143,3.66667,4
239,51:09.3,2.57143,3.66667,4
240,51:09.5,2.57143,3.66667,4
241,51:09.8,2.57143,3.66667,4
242,51:10.0,2.57143,3.66667,4
243,51:10.3,2.57143,3.66667,4
244,51:10.5,2.57143,3.66667,4
245,51:10.8,2.57143,3.66667,4
246,51:11.0,2.57143,3.66667,4
247,51:11.3,2.57143,3.66667,4
248,51:11.5,2.57143,3.66667,4
249,51:11.8,2.57143,3.66667,4
250,51:12.0,2.57143,3.66667,4
251,51:12.3,2.57143,3.66667,4
252,51:12.5,2.57143,3.66667,4
253,51:12.8,2.57143,3.66667,4
254,51:13.0,2.57143,3.66667,4
255,51:13.3,2.57143,3.66667,4
256,51:13.5,2.57143,3.66667,4
257,51:13.8,2.57143,3.66667,4
258,51:14.0,2.57143,3.66667,4
259,51:14.3,2.57143,3.66667,4
260,51:14.5,2.57143,3.66667,4
261,51:14.8,2.57143,3.66667,4
262,51:15.0,2.57143,3.66667,4
263,51:15.3,2.57143,3.66667,4
264,51:15.5,2.57143,3.66667,4
265,51:15.8,2.57143,3.66667,4
266,51:16.0,2.57143,3.66667,4
267,51:16.3,2.57143,3.66667,4
268,51:16.5,2.57143,3.66667,4
269,51:16.8,2.57143,3.66667,4
270,51:17.0,2.57143,3.66667,4
271,51:17.3,2.57143,3.66667,4
272,51:17.5,2.57143,3.66667,4
273,51:17.8,2.57143,3.66667,4
274,51:18.0,2.57143,3.66667,4
275,51:18.3,2.57143,3.66667,4
276,51:18.5,2.57143,3.66667,4
277,51:18.8,2.57143,3.66667,4
278,51:19.0,2.57143,3.66667,4
279,51:19.3,2.57143,3.66667,4
280,51:19.5,2.57143,3.66667,4
281,51:19.8,2.57143,3.66667,4
282,51:20.0,2.57143,3.66667,4
283,51:20.3,2.57143,3.66667,4
284,51:20.5,2.57143,3.66667,4
285,51:20.8,2.57143,3.66667,4
286,51:21.0,2.57143,3.66667,4
287,51:21.3,2.57143,3.66667,4
288,51:21.5,2.57143,3.66667,4
289,51:21.8,2.57143,3.66667,4
290,51:22.0,2.57143,3.66667,4
291,51:22.3,2.57143,3.66667,4
292,51:22.5,2.57143,3.66667,4
293,51:22.8,2.57143,3.66667,4
294,51:23.0,2.57143,3.66667,4
295,51:23.3,2.57143,3.66667,4
296,51:23.5,2.57143,3.66667,4
297,51:23.8,2.57143,3.66667,4
298,51:24.0,2.57143,3.66667,4
299,51:24.3,2.57143,3.66667,4
300,51:24.5,2.57143,3.66667,4
301,51:24.8,2.57143,3.66667,4
302,51:25.0,2.57143,3.66667,4
303,51:25.3,2.57143,3.66667,4
304,51:25.5,2.57143,3.66667,4
305,51:25.8,2.57143,3.66667,4
306,51:26.0,2.57143,3.66667,4
307,51:26.3,2.57143,3.66667,4
308,51:26.5,2.57143,3.66667,4
309,51:26.8,2.57143,3.66667,4
310,51:27.0,2.57143,3.66667,4
311,51:27.3,2.57143,3.66667,4
312,51:27.5,2.57143,3.66667,4
313,51:27.8,2.57143,3.66667,4
314,51:28.0,2.57143,3.66667,4
315,51:28.3,2.57143,3.66667,4
316,51:28.5,2.57143,3.66667,4
317,51:28.8,2.57143,3.66667,4
318,51:29.0,2.57143,3.66667,4
319,51:29.3,2.57143,3.66667,4
320,51:29.5,2.57143,3.66667,4
321,51:29.8,2.57143,3.66667,4
322,51:30.0,2.57143,3.66667,4
323,51:30.3,2.57143,3.66667,4
324,51:30.5,2.57143,3.66667,4
325,51:30.8,2.57143,3.66667,4
326,51:31.0,2.57143,3.66667,4
327,51:31.3,2.57143,3.66667,4
328,51:31.5,2.57143,3.66667,4
329,51:31.7,2.57143,3.66667,4
330,51:32.0,2.57143,3.66667,4
331,51:32.2,2.57143,3.66667,4
332,51:32.5,2.57143,3.66667,4
333,51:32.7,2.57143,3.66667,4
334,51:33.0,2.57143,3.66667,4
335,51:33.2,2.57143,3.66667,4
336,51:33.5,2.57143,3.66667,4
337,51:33.7,2.57143,3.66667,4
338,51:34.0,2.57143,3.66667,4
339,51:34.2,2.57143,3.66667,4
340,51:34.5,2.57143,3.66667,4
341,51:34.7,2.57143,3.66667,4
342,51:35.0,2.57143,3.66667,4
343,51:35.2,2.57143,3.66667,4
344,51:35.5,2.57143,3.66667,4
345,51:35.7,2.57143,3.66667,4
346,51:36.0,2.57143,3.66667,4
347,51:36.2,2.57143,3.66667,4
348,51:36.5,2.57143,3.66667,4
349,51:36.7,2.57143,3.66667,4
350,51:37.0,2.57143,3.66667,4
351,51:37.2,2.57143,3.66667,4
352,51:37.5,2.57143,3.66667,4
353,51:37.7,2.57143,3.66667,4
354,51:38.0,2.57143,3.66667,4
355,51:38.2,2.57143,3.66667,4
356,51:38.5,2.57143,3.66667,4
357,51:38.7,2.57143,3.66667,4
358,51:39.0,2.57143,3.66667,4
359,51:39.2,2.57143,3.66667,4
360,51:39.5,2.57143,3.66667,4
361,51:39.7,2.57143,3.66667,4
362,51:40.0,2.57143,3.66667,4
363,51:40.2,2.57143,3.66667,4
364,51:40.5,2.57143,3.66667,4
365,51:40.7,2.57143,3.66667,4
366,51:41.0,2.57143,3.66667,4
367,51:41.2,2.57143,3.66667,4
368,51:41.5,2.57143,3.66667,4
369,51:41.7,2.57143,3.66667,4
370,51:42.0,2.57143,3.66667,4
371,51:42.2,2.57143,3.66667,4
372,51:42.5,2.57143,3.66667,4
373,51:42.8,2.57143,3.66667,4
374,51:43.0,2.57143,3.66667,4
375,51:43.2,2.57143,3.66667,4
376,51:43.5,2.57143,3.66667,4
377,51:43.7,2.57143,3.66667,4
378,51:44.0,2.57143,3.66667,4
379,51:44.3,2.57143,3.66667,4
380,51:44.5,2.57143,3.66667,4
381,51:44.7,2.57143,3.66667,4
382,51:45.0,2.57143,3.66667,4
383,51:45.2,2.57143,3.66667,4
384,51:45.5,2.57143,3.66667,4
385,51:45.7,2.57143,3.66667,4
386,51:46.0,2.57143,3.66667,4
387,51:46.2,2.57143,3.66667,4
388,51:46.5,2.57143,3.66667,4
389,51:46.7,2.57143,3.66667,4
390,51:47.0,2.57143,3.66667,4
391,51:47.2,2.57143,3.66667,4
392,51:47.5,2.57143,3.66667,4
393,51:47.7,2.57143,3.66667,4
394,51:48.0,2.57143,3.66667,4
395,51:48.2,2.57143,3.66667,4
396,51:48.5,2.57143,3.66667,4
397,51:48.7,2.57143,3.66667,4
398,51:49.0,2.57143,3.66667,4
399,51:49.2,2.57143,3.66667,4
400,51:49.5,2.57143,3.66667,4
401,51:49.7,2.57143,3.66667,4
402,51:50.0,2.57143,3.66667,4
403,51:50.2,2.57143,3.66667,4
404,51:50.5,2.57143,3.66667,4
405,51:50.7,2.57143,3.66667,4
406,51:51.0,2.57143,3.66667,4
407,51:51.2,2.57143,3.66667,4
408,51:51.5,2.57143,3.66667,4
409,51:51.7,2.57143,3.66667,4
410,51:52.0,2.57143,3.66667,4
411,51:52.2,2.57143,3.66667,4
412,51:52.5,2.57143,3.66667,4
413,51:52.7,2.57143,3.66667,4
414,51:53.0,2.57143,3.66667,4
415,51:53.2,2.57143,3.66667,4
416,51:53.5,2.57143,3.66667,4
417,51:53.7,2.57143,3.66667,4
418,51:54.0,2.57143,3.66667,4
419,51:54.2,2.57143,3.66667,4
420,51:54.5,2.57143,3.66667,4
421,51:54.7,2.57143,3.66667,4
422,51:55.0,2.57143,3.66667,4
423,51:55.2,2.57143,3.66667,4
424,51:55.5,2.57143,3.66667,4
425,51:55.7,2.57143,3.66667,4
426,51:56.0,2.57143,3.66667,4
427,51:56.2,2.57143,3.66667,4
428,51:56.5,2.57143,3.66667,4
429,51:56.7,2.57143,3.66667,4
430,51:57.0,2.57143,3.66667,4
431,51:57.2,2.57143,3.66667,4
432,51:57.5,2.57143,3.66667,4
433,51:57.7,2.57143,3.66667,4
434,51:58.0,2.57143,3.66667,4
435,51:58.2,2.57143,3.66667,4
436,51:58.5,2.57143,3.66667,4
437,51:58.7,2.57143,3.66667,4
438,51:59.0,2.57143,3.66667,4
439,51:59.2,2.57143,3.66667,4
440,51:59.5,2.57143,3.66667,4
441,51:59.7,2.57143,3.66667,4
442,52:00.0,2.57143,3.66667,4
443,52:00.2,2.57143,3.66667,4
444,52:00.5,2.57143,3.66667,4
445,52:00.7,2.57143,3.66667,4
446,52:01.0,2.57143,3.66667,4
447,52:01.2,2.57143,3.66667,4
448,52:01.5,2.57143,3.66667,4
449,52:01.7,2.57143,3.66667,4
450,52:02.0,2.57143,3.66667,4
451,52:02.2,2.57143,3.66667,4
452,52:02.5,2.57143,3.66667,4
453,52:02.7,2.57143,3.66667,4
454,52:03.0,2.57143,3.66667,4
455,52:03.2,2.57143,3.66667,4
456,52:03.5,2.57143,3.66667,4
457,52:03.7,2.57143,3.66667,4
458,52:04.0,2.57143,3.66667,4
459,52:04.2,2.57143,3.66667,4
460,52:04.5,2.57143,3.66667,4
461,52:04.7,2.57143,3.66667,4
462,52:05.0,2.57143,3.66667,4
463,52:05.2,2.57143,3.66667,4
464,52:05.5,2.57143,3.66667,4
465,52:05.7,2.57143,3.66667,4
466,52:06.0,2.57143,3.66667,4
467,52:06.2,2.57143,3.66667,4
468,52:06.5,2.57143,3.66667,4
469,52:06.7,2.57143,3.66667,4
470,52:07.0,2.57143,3.66667,4
471,52:07.2,2.57143,3.66667,4
472,52:07.5,2.57143,3.66667,4
473,52:07.7,2.57143,3.66667,4
474,52:08.0,2.57143,3.66667,4
475,52:08.2,2.57143,3.66667,4
476,52:08.5,2.57143,3.66667,4
477,52:08.7,2.57143,3.66667,4
478,52:09.0,2.57143,3.66667,4
479,52:09.2,2.57143,3.66667,4
480,52:09.5,2.57143,3.66667,4
481,52:09.7,2.57143,3.66667,4
482,52:10.0,2.57143,3.66667,4
483,52:10.2,2.57143,3.66667,4
484,52:10.5,2.57143,3.66667,4
485,52:10.7,2.57143,3.66667,4
486,52:11.0,2.57143,3.66667,4
487,52:11.2,2.57143,3.66667,4
488,52:11.5,2.57143,3.66667,4
489,52:11.7,2.57143,3.66667,4
490,52:12.0,2.57143,3.66667,4
491,52:12.2,2.57143,3.66667,4
492,52:12.5,2.57143,3.66667,4
493,52:12.7,2.57143,3.66667,4
494,52:13.0,2.57143,3.66667,4
495,52:13.2,2.57143,3.66667,4
496,52:13.5,2.57143,3.66667,4
497,52:13.7,2.57143,3.66667,4
498,52:14.0,2.57143,3.66667,4
499,52:14.2,2.57143,3.66667,4
500,52:14.5,2.57143,3.66667,4
501,52:14.7,2.57143,3.66667,4
502,52:15.0,2.57143,3.66667,4
503,52:15.2,2.57143,3.66667,4
504,52:15.5,2.57143,3.66667,4
505,52:15.7,2.57143,3.66667,4
506,52:16.0,2.57143,3.66667,4
507,52:16.2,2.57143,3.66667,4
508,52:16.5,2.57143,3.66667,4
509,52:16.7,2.57143,3.66667,4
510,52:17.0,2.57143,3.66667,4
511,52:17.2,2.57143,3.66667,4
512,52:17.5,2.57143,3.66667,4
513,52:17.7,2.57143,3.66667,4
514,52:18.0,2.57143,3.66667,4
515,52:18.2,2.57143,3.66667,4
516,52:18.5,2.57143,3.66667,4
517,52:18.7,2.57143,3.66667,4
518,52:19.0,2.57143,3.66667,4
519,52:19.2,2.57143,3.66667,4
520,52:19.5,2.57143,3.66667,4
521,52:19.7,2.57143,3.66667,4
522,52:20.0,2.57143,3.66667,4
523,52:20.2,2.57143,3.66667,4
524,52:20.5,2.57143,3.66667,4
525,52:20.7,2.57143,3.66667,4
526,52:21.0,2.57143,3.66667,4
527,52:21.2,2.57143,3.66667,4
528,52:21.5,2.57143,3.66667,4
529,52:21.7,2.57143,3.66667,4
530,52:22.0,2.57143,3.66667,4
531,52:22.2,2.57143,3.66667,4
532,52:22.5,2.57143,3.66667,4
533,52:22.7,2.57143,3.66667,4
534,52:23.0,2.57143,3.66667,4
535,52:23.2,2.57143,3.66667,4
536,52:23.5,2.57143,3.66667,4
537,52:23.7,2.57143,3.66667,4
538,52:24.0,2.57143,3.66667,4
539,52:24.2,2.57143,3.66667,4
540,52:24.5,2.57143,3.66667,4
541,52:24.7,2.57143,3.66667,4
542,52:25.0,2.57143,3.66667,4
543,52:25.2,2.57143,3.66667,4
544,52:25.5,2.57143,3.66667,4
545,52:25.7,2.57143,3.66667,4
546,52:26.0,2.57143,3.66667,4
547,52:26.2,2.57143,3.66667,4
548,52:26.5,2.57143,3.66667,4
549,52:26.7,2.57143,3.66667,4
550,52:27.0,2.57143,3.66667,4
551,52:27.2,2.57143,3.66667,4
552,52:27.5,2.57143,3.66667,4
553,52:27.7,2.57143,3.66667,4
554,52:28.0,2.57143,3.66667,4
555,52:28.2,2.57143,3.66667,4
556,52:28.5,2.57143,3.66667,4
557,52:28.7,2.57143,3.66667,4
558,52:29.0,2.57143,3.66667,4
559,52:29.2,2.57143,3.66667,4
560,52:29.5,2.57143,3.66667,4
561,52:29.7,2.57143,3.66667,4
562,52:30.0,2.57143,3.66667,4
563,53:21.9,2,2.33333,4
564,53:22.2,2,2.33333,4
565,53:22.4,2,2.33333,4
566,53:22.7,2,2.33333,4
567,53:22.9,2,2.33333,4
568,53:23.2,2,2.33333,4
569,53:23.4,2,2.33333,4
570,53:23.7,2,2.33333,4
571,53:23.9,2,2.33333,4
572,53:24.2,2,2.33333,4
573,53:24.4,2,2.33333,4
574,53:24.7,2,2.33333,4
575,53:24.9,2,2.33333,4
576,53:25.2,2,2.33333,4
577,53:25.4,2,2.33333,4
578,53:25.7,2,2.33333,4
579,53:25.9,2,2.33333,4
580,53:26.1,2,2.33333,4
581,53:26.4,2,2.33333,4
582,53:26.7,2,2.33333,4
583,53:26.9,2,2.33333,4
584,53:27.2,2,2.33333,4
585,53:27.4,2,2.33333,4
586,53:27.6,2,2.33333,4
587,53:27.9,2,2.33333,4
588,53:28.2,2,2.33333,4
589,53:28.4,2,2.33333,4
590,53:28.7,2,2.33333,4
591,53:28.9,2,2.33333,4
592,53:29.2,2,2.33333,4
593,53:29.4,2,2.33333,4
594,53:29.6,2,2.33333,4
595,53:29.9,2,2.33333,4
596,53:30.2,2,2.33333,4
597,53:30.4,2,2.33333,4
598,53:30.7,2,2.33333,4
599,53:30.9,2,2.33333,4
600,53:31.1,2,2.33333,4
601,53:31.4,2,2.33333,4
602,53:31.7,2,2.33333,4
603,53:31.9,2,2.33333,4
604,53:32.2,2,2.33333,4
605,53:32.4,2,2.33333,4
606,53:32.7,2,2.33333,4
607,53:32.9,2,2.33333,4
608,53:33.2,2,2.33333,4
609,53:33.4,2,2.33333,4
610,53:33.6,2,2.33333,4
611,53:33.9,2,2.33333,4
612,53:34.1,2,2.33333,4
613,53:34.4,2,2.33333,4
614,53:34.6,2,2.33333,4
615,53:34.9,2,2.33333,4
616,53:35.2,2,2.33333,4
617,53:35.4,2,2.33333,4
618,53:35.7,2,2.33333,4
619,53:35.9,2,2.33333,4
620,53:36.1,2,2.33333,4
621,53:36.4,2,2.33333,4
622,53:36.6,2,2.33333,4
623,53:36.9,2,2.33333,4
624,53:37.1,2,2.33333,4
625,53:37.4,2,2.33333,4
626,53:37.7,2,2.33333,4
627,53:37.9,2,2.33333,4
628,53:38.1,2,2.33333,4
629,53:38.4,2,2.33333,4
630,53:38.6,2,2.33333,4
631,53:38.9,2,2.33333,4
632,53:39.1,2,2.33333,4
633,53:39.4,2,2.33333,4
634,53:39.6,2,2.33333,4
635,53:39.9,2,2.33333,4
636,53:40.1,2,2.33333,4
637,53:40.4,2,2.33333,4
638,53:40.6,2,2.33333,4
639,53:40.9,2,2.33333,4
640,53:41.1,2,2.33333,4
641,53:41.4,2,2.33333,4
642,53:41.6,2,2.33333,4
643,53:41.9,2,2.33333,4
644,53:42.1,2,2.33333,4
645,53:42.4,2,2.33333,4
646,53:42.6,2,2.33333,4
647,53:42.9,2,2.33333,4
648,53:43.1,2,2.33333,4
649,53:43.4,2,2.33333,4
650,53:43.6,2,2.33333,4
651,53:43.9,2,2.33333,4
652,53:44.1,2,2.33333,4
653,53:44.4,2,2.33333,4
654,53:44.6,2,2.33333,4
655,53:44.9,2,2.33333,4
656,53:45.1,2,2.33333,4
657,53:45.4,2,2.33333,4
658,53:45.6,2,2.33333,4
659,53:45.9,2,2.33333,4
660,53:46.2,2,2.33333,4
661,53:46.4,2,2.33333,4
662,53:46.6,2,2.33333,4
663,53:46.9,2,2.33333,4
664,53:47.1,2,2.33333,4
665,53:47.4,2,2.33333,4
666,53:47.6,2,2.33333,4
667,53:47.9,2,2.33333,4
668,53:48.1,2,2.33333,4
669,53:48.4,2,2.33333,4
670,53:48.6,2,2.33333,4
671,53:48.9,2,2.33333,4
672,53:49.1,2,2.33333,4
673,53:49.4,2,2.33333,4
674,53:49.6,2,2.33333,4
675,53:49.9,2,2.33333,4
676,53:50.1,2,2.33333,4
677,53:50.4,2,2.33333,4
678,53:50.6,2,2.33333,4
679,53:50.9,2,2.33333,4
680,53:51.1,2,2.33333,4
681,53:51.4,2,2.33333,4
682,53:51.6,2,2.33333,4
683,53:51.9,2,2.33333,4
684,53:52.1,2,2.33333,4
685,53:52.4,2,2.33333,4
686,53:52.6,2,2.33333,4
687,53:52.9,2,2.33333,4
688,53:53.1,2,2.33333,4
689,53:53.4,2,2.33333,4
690,53:53.6,2,2.33333,4
691,53:53.9,2,2.33333,4
692,53:54.1,2,2.33333,4
693,53:54.4,2,2.33333,4
694,53:54.6,2,2.33333,4
695,53:54.9,2,2.33333,4
696,53:55.1,2,2.33333,4
697,53:55.4,2,2.33333,4
698,53:55.6,2,2.33333,4
699,53:55.9,2,2.33333,4
700,53:56.1,2,2.33333,4
701,53:56.4,2,2.33333,4
702,53:56.6,2,2.33333,4
703,53:56.9,2,2.33333,4
704,53:57.1,2,2.33333,4
705,53:57.4,2,2.33333,4
706,53:57.6,2,2.33333,4
707,53:57.9,2,2.33333,4
708,53:58.1,2,2.33333,4
709,53:58.4,2,2.33333,4
710,53:58.6,2,2.33333,4
711,53:58.9,2,2.33333,4
712,53:59.1,2,2.33333,4
713,53:59.4,2,2.33333,4
714,53:59.6,2,2.33333,4
715,53:59.9,2,2.33333,4
716,54:00.1,2,2.33333,4
717,54:00.4,2,2.33333,4
718,54:00.6,2,2.33333,4
719,54:00.9,2,2.33333,4
720,54:01.1,2,2.33333,4
721,54:01.4,2,2.33333,4
722,54:01.6,2,2.33333,4
723,54:01.9,2,2.33333,4
724,54:02.1,2,2.33333,4
725,54:02.4,2,2.33333,4
726,54:02.6,2,2.33333,4
727,54:02.9,2,2.33333,4
728,54:03.1,2,2.33333,4
729,54:03.4,2,2.33333,4
730,54:03.6,2,2.33333,4
731,54:03.9,2,2.33333,4
732,54:04.1,2,2.33333,4
733,54:04.4,2,2.33333,4
734,54:04.6,2,2.33333,4
735,54:04.9,2,2.33333,4
736,54:05.1,2,2.33333,4
737,54:05.4,2,2.33333,4
738,54:05.6,2,2.33333,4
739,54:05.9,2,2.33333,4
740,54:06.1,2,2.33333,4
741,54:06.4,2,2.33333,4
742,54:06.7,2,2.33333,4
743,54:06.9,2,2.33333,4
744,54:07.1,2,2.33333,4
745,54:07.4,2,2.33333,4
746,54:07.6,2,2.33333,4
747,54:07.9,2,2.33333,4
748,54:08.1,2,2.33333,4
749,54:08.4,2,2.33333,4
750,54:08.6,2,2.33333,4
751,54:08.9,2,2.33333,4
752,54:09.1,2,2.33333,4
753,54:09.4,2,2.33333,4
754,54:09.6,2,2.33333,4
755,54:09.9,2,2.33333,4
756,54:10.1,2,2.33333,4
757,54:10.4,2,2.33333,4
758,54:10.6,2,2.33333,4
759,54:10.9,2,2.33333,4
760,54:11.1,2,2.33333,4
761,54:11.4,2,2.33333,4
762,54:11.6,2,2.33333,4
763,54:11.9,2,2.33333,4
764,54:12.1,2,2.33333,4
765,54:12.4,2,2.33333,4
766,54:12.6,2,2.33333,4
767,54:12.9,2,2.33333,4
768,54:13.1,2,2.33333,4
769,54:13.4,2,2.33333,4
770,54:13.6,2,2.33333,4
771,54:13.9,2,2.33333,4
772,54:14.1,2,2.33333,4
773,54:14.4,2,2.33333,4
774,54:14.6,2,2.33333,4
775,54:14.9,2,2.33333,4
776,54:15.1,2,2.33333,4
777,54:15.4,2,2.33333,4
778,54:15.6,2,2.33333,4
779,54:15.9,2,2.33333,4
780,54:16.1,2,2.33333,4
781,54:16.4,2,2.33333,4
782,54:16.6,2,2.33333,4
783,54:16.9,2,2.33333,4
784,54:17.1,2,2.33333,4
785,54:17.4,2,2.33333,4
786,54:17.6,2,2.33333,4
787,54:17.9,2,2.33333,4
788,54:18.1,2,2.33333,4
789,54:18.4,2,2.33333,4
790,54:18.6,2,2.33333,4
791,54:18.9,2,2.33333,4
792,54:19.1,2,2.33333,4
793,54:19.4,2,2.33333,4
794,54:19.6,2,2.33333,4
795,54:19.9,2,2.33333,4
796,54:20.1,2,2.33333,4
797,54:20.4,2,2.33333,4
798,54:20.6,2,2.33333,4
799,54:20.9,2,2.33333,4
800,54:21.1,2,2.33333,4
801,54:21.4,2,2.33333,4
802,54:21.6,2,2.33333,4
803,54:21.9,2,2.33333,4
804,54:22.1,2,2.33333,4
805,54:22.4,2,2.33333,4
806,54:22.6,2,2.33333,4
807,54:22.9,2,2.33333,4
808,54:23.1,2,2.33333,4
809,54:23.4,2,2.33333,4
810,54:23.6,2,2.33333,4
811,54:23.9,2,2.33333,4
812,54:24.1,2,2.33333,4
813,54:24.4,2,2.33333,4
814,54:24.6,2,2.33333,4
815,54:24.9,2,2.33333,4
816,54:25.1,2,2.33333,4
817,54:25.4,2,2.33333,4
818,54:25.6,2,2.33333,4
819,54:25.9,2,2.33333,4
820,54:26.1,2,2.33333,4
821,54:26.4,2,2.33333,4
822,54:26.6,2,2.33333,4
823,54:26.9,2,2.33333,4
824,54:27.1,2,2.33333,4
825,54:27.4,2,2.33333,4
826,54:27.6,2,2.33333,4
827,54:27.9,2,2.33333,4
828,54:28.1,2,2.33333,4
829,54:28.4,2,2.33333,4
830,54:28.6,2,2.33333,4
831,54:28.9,2,2.33333,4
832,54:29.1,2,2.33333,4
833,54:29.4,2,2.33333,4
834,54:29.6,2,2.33333,4
835,54:29.9,2,2.33333,4
836,54:30.1,2,2.33333,4
837,54:30.4,2,2.33333,4
838,54:30.6,2,2.33333,4
839,54:30.9,2,2.33333,4
840,54:31.1,2,2.33333,4
841,54:31.4,2,2.33333,4
842,54:31.6,2,2.33333,4
843,54:31.9,2,2.33333,4
844,54:32.1,2,2.33333,4
845,54:32.4,2,2.33333,4
846,54:32.6,2,2.33333,4
847,54:32.9,2,2.33333,4
848,54:33.1,2,2.33333,4
849,54:33.4,2,2.33333,4
850,54:33.6,2,2.33333,4
851,54:33.9,2,2.33333,4
852,54:34.1,2,2.33333,4
853,54:34.4,2,2.33333,4
854,54:34.6,2,2.33333,4
855,54:34.9,2,2.33333,4
856,54:35.1,2,2.33333,4
857,54:35.4,2,2.33333,4
858,54:35.6,2,2.33333,4
859,54:35.9,2,2.33333,4
860,54:36.1,2,2.33333,4
861,54:36.4,2,2.33333,4
862,54:36.6,2,2.33333,4
863,54:36.9,2,2.33333,4
864,54:37.1,2,2.33333,4
865,54:37.4,2,2.33333,4
866,54:37.6,2,2.33333,4
867,54:37.9,2,2.33333,4
868,54:38.1,2,2.33333,4
869,54:38.4,2,2.33333,4
870,54:38.6,2,2.33333,4
871,54:38.9,2,2.33333,4
872,54:39.1,2,2.33333,4
873,54:39.4,2,2.33333,4
874,54:39.6,2,2.33333,4
875,54:39.9,2,2.33333,4
876,54:40.1,2,2.33333,4
877,54:40.4,2,2.33333,4
878,54:40.6,2,2.33333,4
879,54:40.9,2,2.33333,4
880,54:41.1,2,2.33333,4
881,54:41.4,2,2.33333,4
882,54:41.6,2,2.33333,4
883,54:41.8,2,2.33333,4
884,54:42.1,2,2.33333,4
885,54:42.4,2,2.33333,4
886,54:42.6,2,2.33333,4
887,54:42.9,2,2.33333,4
888,54:43.1,2,2.33333,4
889,54:43.4,2,2.33333,4
890,54:43.6,2,2.33333,4
891,54:43.9,2,2.33333,4
892,54:44.1,2,2.33333,4
893,54:44.4,2,2.33333,4
894,54:44.6,2,2.33333,4
895,54:44.9,2,2.33333,4
896,54:45.1,2,2.33333,4
897,54:45.3,2,2.33333,4
898,54:45.6,2,2.33333,4
899,54:45.9,2,2.33333,4
900,54:46.1,2,2.33333,4
901,54:46.3,2,2.33333,4
902,54:46.6,2,2.33333,4
903,54:46.9,2,2.33333,4
904,54:47.1,2,2.33333,4
905,54:47.3,2,2.33333,4
906,54:47.6,2,2.33333,4
907,54:47.9,2,2.33333,4
908,54:48.1,2,2.33333,4
909,54:48.3,2,2.33333,4
910,54:48.6,2,2.33333,4
911,54:48.8,2,2.33333,4
912,54:49.1,2,2.33333,4
913,54:49.3,2,2.33333,4
914,54:49.6,2,2.33333,4
915,54:49.8,2,2.33333,4
916,54:50.1,2,2.33333,4
917,54:50.3,2,2.33333,4
918,54:50.6,2,2.33333,4
919,54:50.8,2,2.33333,4
920,54:51.1,2,2.33333,4
921,54:51.4,2,2.33333,4
922,55:38.9,3.14286,3.66667,5
923,55:39.2,3.14286,3.66667,5
924,55:39.4,3.14286,3.66667,5
925,55:39.7,3.14286,3.66667,5
926,55:39.9,3.14286,3.66667,5
927,55:40.2,3.14286,3.66667,5
928,55:40.4,3.14286,3.66667,5
929,55:40.7,3.14286,3.66667,5
930,55:40.9,3.14286,3.66667,5
931,55:41.2,3.14286,3.66667,5
932,55:41.4,3.14286,3.66667,5
933,55:41.7,3.14286,3.66667,5
934,55:41.9,3.14286,3.66667,5
935,55:42.2,3.14286,3.66667,5
936,55:42.4,3.14286,3.66667,5
937,55:42.7,3.14286,3.66667,5
938,55:42.9,3.14286,3.66667,5
939,55:43.2,3.14286,3.66667,5
940,55:43.4,3.14286,3.66667,5
941,55:43.7,3.14286,3.66667,5
942,55:43.9,3.14286,3.66667,5
943,55:44.2,3.14286,3.66667,5
944,55:44.5,3.14286,3.66667,5
945,55:44.7,3.14286,3.66667,5
946,55:44.9,3.14286,3.66667,5
947,55:45.2,3.14286,3.66667,5
948,55:45.4,3.14286,3.66667,5
949,55:45.7,3.14286,3.66667,5
950,55:45.9,3.14286,3.66667,5
951,55:46.2,3.14286,3.66667,5
952,55:46.4,3.14286,3.66667,5
953,55:46.7,3.14286,3.66667,5
954,55:46.9,3.14286,3.66667,5
955,55:47.2,3.14286,3.66667,5
956,55:47.4,3.14286,3.66667,5
957,55:47.7,3.14286,3.66667,5
958,55:47.9,3.14286,3.66667,5
959,55:48.2,3.14286,3.66667,5
960,55:48.4,3.14286,3.66667,5
961,55:48.7,3.14286,3.66667,5
962,55:48.9,3.14286,3.66667,5
963,55:49.2,3.14286,3.66667,5
964,55:49.4,3.14286,3.66667,5
965,55:49.7,3.14286,3.66667,5
966,55:49.9,3.14286,3.66667,5
967,55:50.2,3.14286,3.66667,5
968,55:50.4,3.14286,3.66667,5
969,55:50.7,3.14286,3.66667,5
970,55:51.0,3.14286,3.66667,5
971,55:51.2,3.14286,3.66667,5
972,55:51.4,3.14286,3.66667,5
973,55:51.7,3.14286,3.66667,5
974,55:51.9,3.14286,3.66667,5
975,55:52.2,3.14286,3.66667,5
976,55:52.4,3.14286,3.66667,5
977,55:52.7,3.14286,3.66667,5
978,55:52.9,3.14286,3.66667,5
979,55:53.2,3.14286,3.66667,5
980,55:53.4,3.14286,3.66667,5
981,55:53.7,3.14286,3.66667,5
982,55:53.9,3.14286,3.66667,5
983,55:54.2,3.14286,3.66667,5
984,55:54.4,3.14286,3.66667,5
985,55:54.7,3.14286,3.66667,5
986,55:54.9,3.14286,3.66667,5
987,55:55.2,3.14286,3.66667,5
988,55:55.4,3.14286,3.66667,5
989,55:55.7,3.14286,3.66667,5
990,55:55.9,3.14286,3.66667,5
991,55:56.2,3.14286,3.66667,5
992,55:56.4,3.14286,3.66667,5
993,55:56.7,3.14286,3.66667,5
994,55:56.9,3.14286,3.66667,5
995,55:57.2,3.14286,3.66667,5
996,55:57.4,3.14286,3.66667,5
997,55:57.7,3.14286,3.66667,5
998,55:57.9,3.14286,3.66667,5
999,55:58.2,3.14286,3.66667,5
1000,55:58.4,3.14286,3.66667,5
1001,55:58.7,3.14286,3.66667,5
1002,55:58.9,3.14286,3.66667,5
1003,55:59.2,3.14286,3.66667,5
1004,55:59.5,3.14286,3.66667,5
1005,55:59.7,3.14286,3.66667,5
1006,55:59.9,3.14286,3.66667,5
1007,56:00.2,3.14286,3.66667,5
1008,56:00.4,3.14286,3.66667,5
1009,56:00.7,3.14286,3.66667,5
1010,56:00.9,3.14286,3.66667,5
1011,56:01.2,3.14286,3.66667,5
1012,56:01.4,3.14286,3.66667,5
1013,56:01.7,3.14286,3.66667,5
1014,56:01.9,3.14286,3.66667,5
1015,56:02.2,3.14286,3.66667,5
1016,56:02.4,3.14286,3.66667,5
1017,56:02.7,3.14286,3.66667,5
1018,56:02.9,3.14286,3.66667,5
1019,56:03.2,3.14286,3.66667,5
1020,56:03.4,3.14286,3.66667,5
1021,56:03.7,3.14286,3.66667,5
1022,56:03.9,3.14286,3.66667,5
1023,56:04.2,3.14286,3.66667,5
1024,56:04.4,3.14286,3.66667,5
1025,56:04.7,3.14286,3.66667,5
1026,56:05.0,3.14286,3.66667,5
1027,56:05.2,3.14286,3.66667,5
1028,56:05.4,3.14286,3.66667,5
1029,56:05.7,3.14286,3.66667,5
1030,56:05.9,3.14286,3.66667,5
1031,56:06.2,3.14286,3.66667,5
1032,56:06.4,3.14286,3.66667,5
1033,56:06.7,3.14286,3.66667,5
1034,56:06.9,3.14286,3.66667,5
1035,56:07.2,3.14286,3.66667,5
1036,56:07.4,3.14286,3.66667,5
1037,56:07.7,3.14286,3.66667,5
1038,56:07.9,3.14286,3.66667,5
1039,56:08.2,3.14286,3.66667,5
1040,56:08.4,3.14286,3.66667,5
1041,56:08.7,3.14286,3.66667,5
1042,56:08.9,3.14286,3.66667,5
1043,56:09.2,3.14286,3.66667,5
1044,56:09.4,3.14286,3.66667,5
1045,56:09.7,3.14286,3.66667,5
1046,56:09.9,3.14286,3.66667,5
1047,56:10.2,3.14286,3.66667,5
1048,56:10.4,3.14286,3.66667,5
1049,56:10.7,3.14286,3.66667,5
1050,56:10.9,3.14286,3.66667,5
1051,56:11.2,3.14286,3.66667,5
1052,56:11.4,3.14286,3.66667,5
1053,56:11.7,3.14286,3.66667,5
1054,56:11.9,3.14286,3.66667,5
1055,56:12.2,3.14286,3.66667,5
1056,56:12.4,3.14286,3.66667,5
1057,56:12.7,3.14286,3.66667,5
1058,56:12.9,3.14286,3.66667,5
1059,56:13.2,3.14286,3.66667,5
1060,56:13.4,3.14286,3.66667,5
1061,56:13.7,3.14286,3.66667,5
1062,56:13.9,3.14286,3.66667,5
1063,56:14.2,3.14286,3.66667,5
1064,56:14.4,3.14286,3.66667,5
1065,56:14.7,3.14286,3.66667,5
1066,56:14.9,3.14286,3.66667,5
1067,56:15.2,3.14286,3.66667,5
1068,56:15.4,3.14286,3.66667,5
1069,56:15.7,3.14286,3.66667,5
1070,56:15.9,3.14286,3.66667,5
1071,56:16.2,3.14286,3.66667,5
1072,56:16.4,3.14286,3.66667,5
1073,56:16.7,3.14286,3.66667,5
1074,56:16.9,3.14286,3.66667,5
1075,56:17.2,3.14286,3.66667,5
1076,56:17.4,3.14286,3.66667,5
1077,56:17.7,3.14286,3.66667,5
1078,56:17.9,3.14286,3.66667,5
1079,56:18.2,3.14286,3.66667,5
1080,56:18.4,3.14286,3.66667,5
1081,56:18.7,3.14286,3.66667,5
1082,56:18.9,3.14286,3.66667,5
1083,56:19.2,3.14286,3.66667,5
1084,56:19.4,3.14286,3.66667,5
1085,56:19.7,3.14286,3.66667,5
1086,56:19.9,3.14286,3.66667,5
1087,56:20.2,3.14286,3.66667,5
1088,56:20.4,3.14286,3.66667,5
1089,56:20.7,3.14286,3.66667,5
1090,56:20.9,3.14286,3.66667,5
1091,56:21.2,3.14286,3.66667,5
1092,56:21.4,3.14286,3.66667,5
1093,56:21.7,3.14286,3.66667,5
1094,56:21.9,3.14286,3.66667,5
1095,56:22.2,3.14286,3.66667,5
1096,56:22.4,3.14286,3.66667,5
1097,56:22.7,3.14286,3.66667,5
1098,56:22.9,3.14286,3.66667,5
1099,56:23.2,3.14286,3.66667,5
1100,56:23.4,3.14286,3.66667,5
1101,56:23.7,3.14286,3.66667,5
1102,56:23.9,3.14286,3.66667,5
1103,56:24.2,3.14286,3.66667,5
1104,56:24.4,3.14286,3.66667,5
1105,56:24.7,3.14286,3.66667,5
1106,56:24.9,3.14286,3.66667,5
1107,56:25.2,3.14286,3.66667,5
1108,56:25.4,3.14286,3.66667,5
1109,56:25.7,3.14286,3.66667,5
1110,56:25.9,3.14286,3.66667,5
1111,56:26.2,3.14286,3.66667,5
1112,56:26.4,3.14286,3.66667,5
1113,56:26.7,3.14286,3.66667,5
1114,56:26.9,3.14286,3.66667,5
1115,56:27.2,3.14286,3.66667,5
1116,56:27.4,3.14286,3.66667,5
1117,56:27.7,3.14286,3.66667,5
1118,56:27.9,3.14286,3.66667,5
1119,56:28.2,3.14286,3.66667,5
1120,56:28.4,3.14286,3.66667,5
1121,56:28.7,3.14286,3.66667,5
1122,56:28.9,3.14286,3.66667,5
1123,56:29.2,3.14286,3.66667,5
1124,56:29.4,3.14286,3.66667,5
1125,56:29.7,3.14286,3.66667,5
1126,56:29.9,3.14286,3.66667,5
1127,56:30.2,3.14286,3.66667,5
1128,56:30.4,3.14286,3.66667,5
1129,56:30.7,3.14286,3.66667,5
1130,56:30.9,3.14286,3.66667,5
1131,56:31.2,3.14286,3.66667,5
1132,56:31.4,3.14286,3.66667,5
1133,56:31.7,3.14286,3.66667,5
1134,56:31.9,3.14286,3.66667,5
1135,56:32.2,3.14286,3.66667,5
1136,56:32.4,3.14286,3.66667,5
1137,56:32.7,3.14286,3.66667,5
1138,56:32.9,3.14286,3.66667,5
1139,56:33.2,3.14286,3.66667,5
1140,56:33.4,3.14286,3.66667,5
1141,56:33.7,3.14286,3.66667,5
1142,56:33.9,3.14286,3.66667,5
1143,56:34.2,3.14286,3.66667,5
1144,56:34.4,3.14286,3.66667,5
1145,56:34.7,3.14286,3.66667,5
1146,56:34.9,3.14286,3.66667,5
1147,56:35.2,3.14286,3.66667,5
1148,56:35.4,3.14286,3.66667,5
1149,56:35.7,3.14286,3.66667,5
1150,56:35.9,3.14286,3.66667,5
1151,56:36.2,3.14286,3.66667,5
1152,56:36.4,3.14286,3.66667,5
1153,56:36.7,3.14286,3.66667,5
1154,56:36.9,3.14286,3.66667,5
1155,56:37.2,3.14286,3.66667,5
1156,56:37.4,3.14286,3.66667,5
1157,56:37.7,3.14286,3.66667,5
1158,56:37.9,3.14286,3.66667,5
1159,56:38.2,3.14286,3.66667,5
1160,56:38.4,3.14286,3.66667,5
1161,56:38.7,3.14286,3.66667,5
1162,56:38.9,3.14286,3.66667,5
1163,56:39.2,3.14286,3.66667,5
1164,56:39.4,3.14286,3.66667,5
1165,56:39.7,3.14286,3.66667,5
1166,56:39.9,3.14286,3.66667,5
1167,56:40.2,3.14286,3.66667,5
1168,56:40.4,3.14286,3.66667,5
1169,56:40.7,3.14286,3.66667,5
1170,56:40.9,3.14286,3.66667,5
1171,56:41.1,3.14286,3.66667,5
1172,56:41.4,3.14286,3.66667,5
1173,56:41.7,3.14286,3.66667,5
1174,56:41.9,3.14286,3.66667,5
1175,56:42.2,3.14286,3.66667,5
1176,56:42.4,3.14286,3.66667,5
1177,56:42.7,3.14286,3.66667,5
1178,56:42.9,3.14286,3.66667,5
1179,56:43.2,3.14286,3.66667,5
1180,56:43.4,3.14286,3.66667,5
1181,56:43.6,3.14286,3.66667,5
1182,56:43.9,3.14286,3.66667,5
1183,56:44.2,3.14286,3.66667,5
1184,56:44.4,3.14286,3.66667,5
1185,56:44.6,3.14286,3.66667,5
1186,56:44.9,3.14286,3.66667,5
1187,56:45.2,3.14286,3.66667,5
1188,56:45.4,3.14286,3.66667,5
1189,56:45.6,3.14286,3.66667,5
1190,56:45.9,3.14286,3.66667,5
1191,56:46.1,3.14286,3.66667,5
1192,56:46.4,3.14286,3.66667,5
1193,56:46.6,3.14286,3.66667,5
1194,56:46.9,3.14286,3.66667,5
1195,56:47.1,3.14286,3.66667,5
1196,56:47.4,3.14286,3.66667,5
1197,56:47.6,3.14286,3.66667,5
1198,56:47.9,3.14286,3.66667,5
1199,56:48.1,3.14286,3.66667,5
1200,56:48.4,3.14286,3.66667,5
1201,56:48.6,3.14286,3.66667,5
1202,56:48.9,3.14286,3.66667,5
1203,56:49.1,3.14286,3.66667,5
1204,56:49.4,3.14286,3.66667,5
1205,56:49.6,3.14286,3.66667,5
1206,56:49.9,3.14286,3.66667,5
1207,56:50.1,3.14286,3.66667,5
1208,56:50.4,3.14286,3.66667,5
1209,56:50.6,3.14286,3.66667,5
1210,56:50.9,3.14286,3.66667,5
1211,56:51.1,3.14286,3.66667,5
1212,56:51.4,3.14286,3.66667,5
1213,56:51.6,3.14286,3.66667,5
1214,56:51.9,3.14286,3.66667,5
1215,56:52.1,3.14286,3.66667,5
1216,56:52.4,3.14286,3.66667,5
1217,56:52.6,3.14286,3.66667,5
1218,56:52.9,3.14286,3.66667,5
1219,56:53.1,3.14286,3.66667,5
1220,56:53.4,3.14286,3.66667,5
1221,56:53.6,3.14286,3.66667,5
1222,56:53.9,3.14286,3.66667,5
1223,56:54.1,3.14286,3.66667,5
1224,56:54.4,3.14286,3.66667,5
1225,56:54.6,3.14286,3.66667,5
1226,56:54.9,3.14286,3.66667,5
1227,56:55.1,3.14286,3.66667,5
1228,56:55.4,3.14286,3.66667,5
1229,56:55.6,3.14286,3.66667,5
1230,56:55.9,3.14286,3.66667,5
1231,56:56.1,3.14286,3.66667,5
1232,56:56.4,3.14286,3.66667,5
1233,56:56.6,3.14286,3.66667,5
1234,56:56.9,3.14286,3.66667,5
1235,56:57.1,3.14286,3.66667,5
1236,56:57.4,3.14286,3.66667,5
1237,56:57.6,3.14286,3.66667,5
1238,56:57.9,3.14286,3.66667,5
1239,56:58.1,3.14286,3.66667,5
1240,56:58.4,3.14286,3.66667,5
1241,56:58.6,3.14286,3.66667,5
1242,56:58.9,3.14286,3.66667,5
1243,56:59.1,3.14286,3.66667,5
1244,56:59.4,3.14286,3.66667,5
1245,56:59.6,3.14286,3.66667,5
1246,56:59.9,3.14286,3.66667,5
1247,57:00.1,3.14286,3.66667,5
1248,57:00.4,3.14286,3.66667,5
1249,57:00.6,3.14286,3.66667,5
1250,57:00.9,3.14286,3.66667,5
1251,57:01.1,3.14286,3.66667,5
1252,57:01.4,3.14286,3.66667,5
1253,57:01.6,3.14286,3.66667,5
1254,57:01.9,3.14286,3.66667,5
1255,57:02.1,3.14286,3.66667,5
1256,57:02.4,3.14286,3.66667,5
1257,57:02.6,3.14286,3.66667,5
1258,57:02.9,3.14286,3.66667,5
1259,57:03.1,3.14286,3.66667,5
1260,57:03.4,3.14286,3.66667,5
1261,57:03.6,3.14286,3.66667,5
1262,57:03.9,3.14286,3.66667,5
1263,57:04.1,3.14286,3.66667,5
1264,57:04.4,3.14286,3.66667,5
1265,57:04.6,3.14286,3.66667,5
1266,57:04.9,3.14286,3.66667,5
1267,57:05.1,3.14286,3.66667,5
1268,57:05.4,3.14286,3.66667,5
1269,57:05.6,3.14286,3.66667,5
1270,57:05.9,3.14286,3.66667,5
1271,57:06.1,3.14286,3.66667,5
1272,57:06.4,3.14286,3.66667,5
1273,57:06.6,3.14286,3.66667,5
1274,57:06.9,3.14286,3.66667,5
1275,57:07.1,3.14286,3.66667,5
1276,57:07.4,3.14286,3.66667,5
1277,57:07.6,3.14286,3.66667,5
1278,57:07.9,3.14286,3.66667,5
1279,57:08.1,3.14286,3.66667,5
1280,57:08.4,3.14286,3.66667,5
1281,57:08.6,3.14286,3.66667,5
1282,57:08.9,3.14286,3.66667,5
1283,57:09.1,3.14286,3.66667,5
1284,57:09.4,3.14286,3.66667,5
1285,57:09.6,3.14286,3.66667,5
1286,57:09.9,3.14286,3.66667,5
1287,57:10.1,3.14286,3.66667,5
1288,57:10.4,3.14286,3.66667,5
1289,57:10.6,3.14286,3.66667,5
1290,57:10.9,3.14286,3.66667,5
1291,57:11.1,3.14286,3.66667,5
1292,57:11.4,3.14286,3.66667,5
1293,57:11.6,3.14286,3.66667,5
1294,57:11.9,3.14286,3.66667,5
1295,57:12.1,3.14286,3.66667,5
1296,57:12.4,3.14286,3.66667,5
1297,57:12.6,3.14286,3.66667,5
1298,57:12.9,3.14286,3.66667,5
1299,57:13.1,3.14286,3.66667,5
1300,57:13.4,3.14286,3.66667,5
1301,57:13.6,3.14286,3.66667,5
1302,57:13.9,3.14286,3.66667,5
1303,57:14.1,3.14286,3.66667,5
1304,57:14.4,3.14286,3.66667,5
1305,57:14.6,3.14286,3.66667,5
1306,57:14.9,3.14286,3.66667,5
1307,57:15.1,3.14286,3.66667,5
1308,57:15.4,3.14286,3.66667,5
1309,57:15.6,3.14286,3.66667,5
1310,57:15.9,3.14286,3.66667,5
1311,57:16.1,3.14286,3.66667,5
1312,57:16.4,3.14286,3.66667,5
1313,57:16.6,3.14286,3.66667,5
1314,57:16.9,3.14286,3.66667,5
1315,57:17.1,3.14286,3.66667,5
1316,57:17.4,3.14286,3.66667,5
1317,57:17.6,3.14286,3.66667,5
1318,57:17.9,3.14286,3.66667,5
1319,57:18.1,3.14286,3.66667,5
1320,57:18.4,3.14286,3.66667,5
1321,57:18.6,3.14286,3.66667,5
1322,57:18.9,3.14286,3.66667,5
1323,57:19.1,3.14286,3.66667,5
1324,57:19.4,3.14286,3.66667,5
1325,57:19.6,3.14286,3.66667,5
1326,57:19.9,3.14286,3.66667,5
1327,57:20.1,3.14286,3.66667,5
1328,57:20.4,3.14286,3.66667,5
1329,57:20.6,3.14286,3.66667,5
1330,57:20.9,3.14286,3.66667,5
1331,57:21.1,3.14286,3.66667,5
1332,57:21.4,3.14286,3.66667,5
1333,57:21.6,3.14286,3.66667,5
1334,57:21.9,3.14286,3.66667,5
1335,57:22.1,3.14286,3.66667,5
1336,57:22.4,3.14286,3.66667,5
1337,57:22.6,3.14286,3.66667,5
1338,57:22.9,3.14286,3.66667,5
1339,57:23.1,3.14286,3.66667,5
1340,57:23.4,3.14286,3.66667,5
1341,57:23.6,3.14286,3.66667,5
1342,57:23.9,3.14286,3.66667,5
1343,57:24.1,3.14286,3.66667,5
1344,57:24.4,3.14286,3.66667,5
1345,57:24.6,3.14286,3.66667,5
1346,57:24.9,3.14286,3.66667,5
1347,57:25.1,3.14286,3.66667,5
1348,57:25.4,3.14286,3.66667,5
1349,57:25.6,3.14286,3.66667,5
1350,57:25.9,3.14286,3.66667,5
1351,57:26.1,3.14286,3.66667,5
1352,57:26.4,3.14286,3.66667,5
1353,57:26.6,3.14286,3.66667,5
1354,57:26.9,3.14286,3.66667,5
1355,57:27.1,3.14286,3.66667,5
1356,57:27.4,3.14286,3.66667,5
1357,57:27.6,3.14286,3.66667,5
1358,57:27.9,3.14286,3.66667,5
1359,57:28.1,3.14286,3.66667,5
1360,57:28.4,3.14286,3.66667,5
1361,57:28.6,3.14286,3.66667,5
1362,57:28.9,3.14286,3.66667,5
1363,57:29.1,3.14286,3.66667,5
1364,57:29.4,3.14286,3.66667,5
1365,57:29.6,3.14286,3.66667,5
1366,57:29.9,3.14286,3.66667,5
1367,57:30.1,3.14286,3.66667,5
1368,57:30.4,3.14286,3.66667,5
1369,57:30.6,3.14286,3.66667,5
1370,57:30.9,3.14286,3.66667,5
1371,57:31.1,3.14286,3.66667,5
1372,57:31.4,3.14286,3.66667,5
1373,57:31.6,3.14286,3.66667,5
1374,57:31.9,3.14286,3.66667,5
1375,57:32.1,3.14286,3.66667,5
1376,57:32.4,3.14286,3.66667,5
1377,57:32.6,3.14286,3.66667,5
1378,57:32.9,3.14286,3.66667,5
1379,57:33.1,3.14286,3.66667,5
1380,57:33.4,3.14286,3.66667,5
1381,57:33.6,3.14286,3.66667,5
1382,57:33.9,3.14286,3.66667,5
1383,57:34.1,3.14286,3.66667,5
1384,57:34.4,3.14286,3.66667,5
1385,57:34.6,3.14286,3.66667,5
1386,57:34.9,3.14286,3.66667,5
1387,57:35.1,3.14286,3.66667,5
1388,57:35.4,3.14286,3.66667,5
1389,57:35.6,3.14286,3.66667,5
1390,57:35.9,3.14286,3.66667,5
1391,57:36.1,3.14286,3.66667,5
1392,57:36.4,3.14286,3.66667,5
1393,57:36.6,3.14286,3.66667,5
1394,57:36.9,3.14286,3.66667,5
1395,57:37.1,3.14286,3.66667,5
1396,57:37.4,3.14286,3.66667,5
1397,57:37.6,3.14286,3.66667,5
1398,57:37.9,3.14286,3.66667,5
1399,57:38.1,3.14286,3.66667,5
1400,57:38.4,3.14286,3.66667,5
1401,57:38.6,3.14286,3.66667,5
1402,57:38.9,3.14286,3.66667,5
1403,57:39.1,3.14286,3.66667,5
1404,57:39.4,3.14286,3.66667,5
1405,57:39.6,3.14286,3.66667,5
1406,57:39.9,3.14286,3.66667,5
1407,57:40.1,3.14286,3.66667,5
1408,57:40.4,3.14286,3.66667,5
1409,57:40.6,3.14286,3.66667,5
1410,57:40.9,3.14286,3.66667,5
1411,57:41.1,3.14286,3.66667,5
1412,57:41.4,3.14286,3.66667,5
1413,57:41.6,3.14286,3.66667,5
1414,57:41.9,3.14286,3.66667,5
1415,57:42.1,3.14286,3.66667,5
1416,57:42.4,3.14286,3.66667,5
1417,57:42.6,3.14286,3.66667,5
1418,57:42.9,3.14286,3.66667,5
1419,57:43.1,3.14286,3.66667,5
1420,57:43.4,3.14286,3.66667,5
1421,57:43.6,3.14286,3.66667,5
1422,57:43.9,3.14286,3.66667,5
1423,57:44.1,3.14286,3.66667,5
1424,57:44.4,3.14286,3.66667,5
1425,57:44.6,3.14286,3.66667,5
1426,57:44.9,3.14286,3.66667,5
1427,57:45.1,3.14286,3.66667,5
1428,57:45.4,3.14286,3.66667,5
1429,57:45.6,3.14286,3.66667,5
1430,57:45.9,3.14286,3.66667,5
1431,57:46.1,3.14286,3.66667,5
1432,57:46.4,3.14286,3.66667,5
1433,57:46.6,3.14286,3.66667,5
1434,57:46.9,3.14286,3.66667,5
1435,57:47.1,3.14286,3.66667,5
1436,57:47.4,3.14286,3.66667,5
1437,57:47.6,3.14286,3.66667,5
1438,57:47.9,3.14286,3.66667,5
1439,57:48.1,3.14286,3.66667,5
1440,57:48.4,3.14286,3.66667,5
1441,57:48.6,3.14286,3.66667,5
1442,57:48.9,3.14286,3.66667,5
1443,57:49.1,3.14286,3.66667,5
1444,57:49.4,3.14286,3.66667,5
1445,57:49.6,3.14286,3.66667,5
1446,57:49.9,3.14286,3.66667,5
1447,57:50.1,3.14286,3.66667,5
1448,57:50.4,3.14286,3.66667,5
1449,57:50.6,3.14286,3.66667,5
1450,57:50.9,3.14286,3.66667,5
1451,57:51.1,3.14286,3.66667,5
1452,57:51.4,3.14286,3.66667,5
1453,57:51.6,3.14286,3.66667,5
1454,57:51.9,3.14286,3.66667,5
1455,57:52.1,3.14286,3.66667,5
1456,57:52.4,3.14286,3.66667,5
1457,57:52.6,3.14286,3.66667,5
1458,57:52.9,3.14286,3.66667,5
1459,57:53.1,3.14286,3.66667,5
1460,57:53.4,3.14286,3.66667,5
1461,57:53.6,3.14286,3.66667,5
1462,57:53.9,3.14286,3.66667,5
1463,57:54.1,3.14286,3.66667,5
1464,57:54.4,3.14286,3.66667,5
1465,57:54.6,3.14286,3.66667,5
1466,57:54.9,3.14286,3.66667,5
1467,57:55.1,3.14286,3.66667,5
1468,57:55.4,3.14286,3.66667,5
1469,57:55.6,3.14286,3.66667,5
1470,57:55.9,3.14286,3.66667,5
1471,57:56.1,3.14286,3.66667,5
1472,57:56.4,3.14286,3.66667,5
1473,57:56.6,3.14286,3.66667,5
1474,57:56.9,3.14286,3.66667,5
1475,57:57.1,3.14286,3.66667,5
1476,57:57.3,3.14286,3.66667,5
1477,57:57.6,3.14286,3.66667,5
1478,57:57.8,3.14286,3.66667,5
1479,57:58.1,3.14286,3.66667,5
1480,57:58.3,3.14286,3.66667,5
1481,57:58.6,3.14286,3.66667,5
1482,57:58.8,3.14286,3.66667,5
1483,57:59.1,3.14286,3.66667,5
1484,57:59.4,3.14286,3.66667,5
1485,57:59.6,3.14286,3.66667,5
1486,57:59.8,3.14286,3.66667,5
1487,58:00.1,3.14286,3.66667,5
1488,58:00.3,3.14286,3.66667,5
1489,58:00.6,3.14286,3.66667,5
1490,58:00.8,3.14286,3.66667,5
1491,58:01.1,3.14286,3.66667,5
1492,58:01.4,3.14286,3.66667,5
1493,58:01.6,3.14286,3.66667,5
1494,58:01.8,3.14286,3.66667,5
1495,58:02.1,3.14286,3.66667,5
1496,58:02.3,3.14286,3.66667,5
1497,58:02.6,3.14286,3.66667,5
1498,58:02.8,3.14286,3.66667,5
1499,58:03.1,3.14286,3.66667,5
1500,58:03.3,3.14286,3.66667,5
1501,58:03.6,3.14286,3.66667,5
1502,58:03.8,3.14286,3.66667,5
1503,58:04.1,3.14286,3.66667,5
1504,58:04.3,3.14286,3.66667,5
1505,58:04.6,3.14286,3.66667,5
1506,58:04.8,3.14286,3.66667,5
1507,58:05.1,3.14286,3.66667,5
1508,58:05.3,3.14286,3.66667,5
1509,58:05.6,3.14286,3.66667,5
1510,58:05.8,3.14286,3.66667,5
1511,58:06.1,3.14286,3.66667,5
1512,58:06.3,3.14286,3.66667,5
1513,58:06.6,3.14286,3.66667,5
1514,58:06.8,3.14286,3.66667,5
1515,58:07.1,3.14286,3.66667,5
1516,58:07.3,3.14286,3.66667,5
1517,58:07.6,3.14286,3.66667,5
1518,58:07.8,3.14286,3.66667,5
1519,58:08.1,3.14286,3.66667,5
1520,58:08.3,3.14286,3.66667,5
1521,58:08.6,3.14286,3.66667,5
1522,58:08.8,3.14286,3.66667,5
1523,58:09.1,3.14286,3.66667,5
1524,58:09.3,3.14286,3.66667,5
1525,58:09.6,3.14286,3.66667,5
1526,58:09.8,3.14286,3.66667,5
1527,58:10.1,3.14286,3.66667,5
1528,58:10.3,3.14286,3.66667,5
1529,58:10.6,3.14286,3.66667,5
1530,58:50.9,2.42857,3,3
1531,58:51.1,2.42857,3,3
1532,58:51.4,2.42857,3,3
1533,58:51.6,2.42857,3,3
1534,58:51.9,2.42857,3,3
1535,58:52.1,2.42857,3,3
1536,58:52.4,2.42857,3,3
1537,58:52.6,2.42857,3,3
1538,58:52.9,2.42857,3,3
1539,58:53.1,2.42857,3,3
1540,58:53.4,2.42857,3,3
1541,58:53.6,2.42857,3,3
1542,58:53.9,2.42857,3,3
1543,58:54.1,2.42857,3,3
1544,58:54.4,2.42857,3,3
1545,58:54.6,2.42857,3,3
1546,58:54.9,2.42857,3,3
1547,58:55.1,2.42857,3,3
1548,58:55.4,2.42857,3,3
1549,58:55.6,2.42857,3,3
1550,58:55.9,2.42857,3,3
1551,58:56.1,2.42857,3,3
1552,58:56.4,2.42857,3,3
1553,58:56.6,2.42857,3,3
1554,58:56.9,2.42857,3,3
1555,58:57.1,2.42857,3,3
1556,58:57.4,2.42857,3,3
1557,58:57.6,2.42857,3,3
1558,58:57.9,2.42857,3,3
1559,58:58.1,2.42857,3,3
1560,58:58.4,2.42857,3,3
1561,58:58.6,2.42857,3,3
1562,58:58.9,2.42857,3,3
1563,58:59.1,2.42857,3,3
1564,58:59.4,2.42857,3,3
1565,58:59.6,2.42857,3,3
1566,58:59.9,2.42857,3,3
1567,59:00.1,2.42857,3,3
1568,59:00.4,2.42857,3,3
1569,59:00.6,2.42857,3,3
1570,59:00.9,2.42857,3,3
1571,59:01.1,2.42857,3,3
1572,59:01.4,2.42857,3,3
1573,59:01.6,2.42857,3,3
1574,59:01.9,2.42857,3,3
1575,59:02.1,2.42857,3,3
1576,59:02.4,2.42857,3,3
1577,59:02.6,2.42857,3,3
1578,59:02.9,2.42857,3,3
1579,59:03.1,2.42857,3,3
1580,59:03.4,2.42857,3,3
1581,59:03.6,2.42857,3,3
1582,59:03.9,2.42857,3,3
1583,59:04.1,2.42857,3,3
1584,59:04.4,2.42857,3,3
1585,59:04.6,2.42857,3,3
1586,59:04.9,2.42857,3,3
1587,59:05.1,2.42857,3,3
1588,59:05.4,2.42857,3,3
1589,59:05.6,2.42857,3,3
1590,59:05.9,2.42857,3,3
1591,59:06.1,2.42857,3,3
1592,59:06.4,2.42857,3,3
1593,59:06.6,2.42857,3,3
1594,59:06.9,2.42857,3,3
1595,59:07.1,2.42857,3,3
1596,59:07.4,2.42857,3,3
1597,59:07.6,2.42857,3,3
1598,59:07.9,2.42857,3,3
1599,59:08.1,2.42857,3,3
1600,59:08.4,2.42857,3,3
1601,59:08.6,2.42857,3,3
1602,59:08.9,2.42857,3,3
1603,59:09.1,2.42857,3,3
1604,59:09.4,2.42857,3,3
1605,59:09.6,2.42857,3,3
1606,59:09.9,2.42857,3,3
1607,59:10.1,2.42857,3,3
1608,59:10.4,2.42857,3,3
1609,59:10.6,2.42857,3,3
1610,59:10.9,2.42857,3,3
1611,59:11.1,2.42857,3,3
1612,59:11.4,2.42857,3,3
1613,59:11.6,2.42857,3,3
1614,59:11.9,2.42857,3,3
1615,59:12.1,2.42857,3,3
1616,59:12.4,2.42857,3,3
1617,59:12.6,2.42857,3,3
1618,59:12.9,2.42857,3,3
1619,59:13.1,2.42857,3,3
1620,59:13.4,2.42857,3,3
1621,59:13.6,2.42857,3,3
1622,59:13.9,2.42857,3,3
1623,59:14.1,2.42857,3,3
1624,59:14.4,2.42857,3,3
1625,59:14.6,2.42857,3,3
1626,59:14.9,2.42857,3,3
1627,59:15.1,2.42857,3,3
1628,59:15.4,2.42857,3,3
1629,59:15.6,2.42857,3,3
1630,59:15.9,2.42857,3,3
1631,59:16.1,2.42857,3,3
1632,59:16.4,2.42857,3,3
1633,59:16.6,2.42857,3,3
1634,59:16.9,2.42857,3,3
1635,59:17.1,2.42857,3,3
1636,59:17.4,2.42857,3,3
1637,59:17.6,2.42857,3,3
1638,59:17.9,2.42857,3,3
1639,59:18.1,2.42857,3,3
1640,59:18.4,2.42857,3,3
1641,59:18.6,2.42857,3,3
1642,59:18.9,2.42857,3,3
1643,59:19.1,2.42857,3,3
1644,59:19.4,2.42857,3,3
1645,59:19.6,2.42857,3,3
1646,59:19.9,2.42857,3,3
1647,59:20.1,2.42857,3,3
1648,59:20.4,2.42857,3,3
1649,59:20.6,2.42857,3,3
1650,59:20.9,2.42857,3,3
1651,59:21.1,2.42857,3,3
1652,59:21.4,2.42857,3,3
1653,59:21.6,2.42857,3,3
1654,59:21.9,2.42857,3,3
1655,59:22.1,2.42857,3,3
1656,59:22.4,2.42857,3,3
1657,59:22.6,2.42857,3,3
1658,59:22.9,2.42857,3,3
1659,59:23.1,2.42857,3,3
1660,59:23.4,2.42857,3,3
1661,59:23.6,2.42857,3,3
1662,59:23.9,2.42857,3,3
1663,59:24.1,2.42857,3,3
1664,59:24.4,2.42857,3,3
1665,59:24.6,2.42857,3,3
1666,59:24.9,2.42857,3,3
1667,59:25.1,2.42857,3,3
1668,59:25.3,2.42857,3,3
1669,59:25.6,2.42857,3,3
1670,59:25.9,2.42857,3,3
1671,59:26.1,2.42857,3,3
1672,59:26.4,2.42857,3,3
1673,59:26.6,2.42857,3,3
1674,59:26.9,2.42857,3,3
1675,59:27.1,2.42857,3,3
1676,59:27.4,2.42857,3,3
1677,59:27.6,2.42857,3,3
1678,59:27.9,2.42857,3,3
1679,59:28.1,2.42857,3,3
1680,59:28.4,2.42857,3,3
1681,59:28.6,2.42857,3,3
1682,59:28.9,2.42857,3,3
1683,59:29.1,2.42857,3,3
1684,59:29.4,2.42857,3,3
1685,59:29.6,2.42857,3,3
1686,59:29.9,2.42857,3,3
1687,59:30.1,2.42857,3,3
1688,59:30.4,2.42857,3,3
1689,59:30.6,2.42857,3,3
1690,59:30.9,2.42857,3,3
1691,59:31.1,2.42857,3,3
1692,59:31.4,2.42857,3,3
1693,59:31.6,2.42857,3,3
1694,59:31.9,2.42857,3,3
1695,59:32.1,2.42857,3,3
1696,59:32.4,2.42857,3,3
1697,59:32.6,2.42857,3,3
1698,59:32.8,2.42857,3,3
1699,59:33.1,2.42857,3,3
1700,59:33.3,2.42857,3,3
1701,59:33.6,2.42857,3,3
1702,59:33.8,2.42857,3,3
1703,59:34.1,2.42857,3,3
1704,59:34.3,2.42857,3,3
1705,59:34.6,2.42857,3,3
1706,59:34.9,2.42857,3,3
1707,59:35.1,2.42857,3,3
1708,59:35.3,2.42857,3,3
1709,59:35.6,2.42857,3,3
1710,59:35.8,2.42857,3,3
1711,59:36.1,2.42857,3,3
1712,59:36.3,2.42857,3,3
1713,59:36.6,2.42857,3,3
1714,59:36.9,2.42857,3,3
1715,59:37.1,2.42857,3,3
1716,59:37.3,2.42857,3,3
1717,59:37.6,2.42857,3,3
1718,59:37.8,2.42857,3,3
1719,59:38.1,2.42857,3,3
1720,59:38.4,2.42857,3,3
1721,59:38.6,2.42857,3,3
1722,59:38.8,2.42857,3,3
1723,59:39.1,2.42857,3,3
1724,59:39.3,2.42857,3,3
1725,59:39.6,2.42857,3,3
1726,59:39.8,2.42857,3,3
1727,59:40.1,2.42857,3,3
1728,59:40.3,2.42857,3,3
1729,59:40.6,2.42857,3,3
1730,59:40.8,2.42857,3,3
1731,59:41.1,2.42857,3,3
1732,59:41.3,2.42857,3,3
1733,59:41.6,2.42857,3,3
1734,59:41.8,2.42857,3,3
1735,59:42.1,2.42857,3,3
1736,59:42.3,2.42857,3,3
1737,59:42.6,2.42857,3,3
1738,59:42.8,2.42857,3,3
1739,59:43.1,2.42857,3,3
1740,59:43.3,2.42857,3,3
1741,59:43.6,2.42857,3,3
1742,59:43.8,2.42857,3,3
1743,59:44.1,2.42857,3,3
1744,59:44.3,2.42857,3,3
1745,59:44.6,2.42857,3,3
1746,59:44.8,2.42857,3,3
1747,59:45.1,2.42857,3,3
1748,59:45.3,2.42857,3,3
1749,59:45.6,2.42857,3,3
1750,59:45.8,2.42857,3,3
1751,59:46.1,2.42857,3,3
1752,59:46.3,2.42857,3,3
1753,59:46.6,2.42857,3,3
1754,59:46.8,2.42857,3,3
1755,59:47.1,2.42857,3,3
1756,59:47.3,2.42857,3,3
1757,59:47.6,2.42857,3,3
1758,59:47.8,2.42857,3,3
1759,59:48.1,2.42857,3,3
1760,59:48.3,2.42857,3,3
1761,59:48.6,2.42857,3,3
1762,59:48.8,2.42857,3,3
1763,59:49.1,2.42857,3,3
1764,59:49.3,2.42857,3,3
1765,59:49.6,2.42857,3,3
1766,59:49.8,2.42857,3,3
1767,59:50.1,2.42857,3,3
1768,59:50.3,2.42857,3,3
1769,59:50.6,2.42857,3,3
1770,59:50.9,2.42857,3,3
1771,59:51.1,2.42857,3,3
1772,59:51.3,2.42857,3,3
1773,59:51.6,2.42857,3,3
1774,59:51.8,2.42857,3,3
1775,59:52.1,2.42857,3,3
1776,59:52.3,2.42857,3,3
1777,59:52.6,2.42857,3,3
1778,59:52.8,2.42857,3,3
1779,59:53.1,2.42857,3,3
1780,59:53.3,2.42857,3,3
1781,59:53.6,2.42857,3,3
1782,59:53.8,2.42857,3,3
1783,59:54.1,2.42857,3,3
1784,59:54.3,2.42857,3,3
1785,59:54.6,2.42857,3,3
1786,59:54.9,2.42857,3,3
1787,59:55.1,2.42857,3,3
1788,59:55.3,2.42857,3,3
1789,59:55.6,2.42857,3,3
1790,59:55.8,2.42857,3,3
1791,59:56.1,2.42857,3,3
1792,59:56.3,2.42857,3,3
1793,59:56.6,2.42857,3,3
1794,59:56.8,2.42857,3,3
1795,59:57.1,2.42857,3,3
1796,59:57.3,2.42857,3,3
1797,59:57.6,2.42857,3,3
1798,59:57.9,2.42857,3,3
1799,59:58.1,2.42857,3,3
1800,59:58.3,2.42857,3,3
1801,59:58.6,2.42857,3,3
1802,59:58.8,2.42857,3,3
1803,59:59.1,2.42857,3,3
1804,59:59.3,2.42857,3,3
1805,59:59.6,2.42857,3,3
1806,59:59.8,2.42857,3,3
1807,00:00.1,2.42857,3,3
1808,00:00.3,2.42857,3,3
1809,00:00.6,2.42857,3,3
1810,00:00.8,2.42857,3,3
1811,00:01.1,2.42857,3,3
1812,00:01.3,2.42857,3,3
1813,00:01.6,2.42857,3,3
1814,00:01.8,2.42857,3,3
1815,00:02.1,2.42857,3,3
1816,00:02.3,2.42857,3,3
1817,00:02.6,2.42857,3,3
1818,00:02.8,2.42857,3,3
1819,00:03.1,2.42857,3,3
1820,00:03.3,2.42857,3,3
1821,00:03.6,2.42857,3,3
1822,00:03.8,2.42857,3,3
1823,00:04.1,2.42857,3,3
1824,00:04.3,2.42857,3,3
1825,00:04.6,2.42857,3,3
1826,00:04.8,2.42857,3,3
1827,00:05.1,2.42857,3,3
1828,00:05.3,2.42857,3,3
1829,00:05.6,2.42857,3,3
1830,00:05.8,2.42857,3,3
1831,00:06.1,2.42857,3,3
1832,00:06.3,2.42857,3,3
1833,00:06.6,2.42857,3,3
1834,00:06.8,2.42857,3,3
1835,00:07.1,2.42857,3,3
1836,00:07.3,2.42857,3,3
1837,00:07.6,2.42857,3,3
1838,00:07.8,2.42857,3,3
1839,00:08.1,2.42857,3,3
1840,00:08.3,2.42857,3,3
1841,00:08.6,2.42857,3,3
1842,00:08.8,2.42857,3,3
1843,00:09.1,2.42857,3,3
1844,00:09.3,2.42857,3,3
1845,00:09.6,2.42857,3,3
1846,00:09.8,2.42857,3,3
1847,00:10.1,2.42857,3,3
1848,00:10.3,2.42857,3,3
1849,00:10.6,2.42857,3,3
1850,00:10.8,2.42857,3,3
1851,00:11.1,2.42857,3,3
1852,00:11.3,2.42857,3,3
1853,00:11.6,2.42857,3,3
1854,00:11.8,2.42857,3,3
1855,00:12.1,2.42857,3,3
1856,00:12.3,2.42857,3,3
1857,00:12.6,2.42857,3,3
1858,00:12.8,2.42857,3,3
1859,00:13.1,2.42857,3,3
1860,00:13.3,2.42857,3,3
1861,00:13.6,2.42857,3,3
1862,00:13.8,2.42857,3,3
1863,00:14.1,2.42857,3,3
1864,00:14.3,2.42857,3,3
1865,00:14.6,2.42857,3,3
1866,00:14.8,2.42857,3,3
1867,00:15.1,2.42857,3,3
1868,00:15.3,2.42857,3,3
1869,00:15.6,2.42857,3,3
1870,00:15.8,2.42857,3,3
1871,00:16.1,2.42857,3,3
1872,00:16.3,2.42857,3,3
1873,00:16.6,2.42857,3,3
1874,00:16.8,2.42857,3,3
1875,00:17.1,2.42857,3,3
1876,00:17.3,2.42857,3,3
1877,00:17.6,2.42857,3,3
1878,00:17.8,2.42857,3,3
1879,00:18.1,2.42857,3,3
1880,00:18.3,2.42857,3,3
1881,00:18.6,2.42857,3,3
1882,00:18.8,2.42857,3,3
1883,00:19.1,2.42857,3,3
1884,00:19.3,2.42857,3,3
1885,00:19.6,2.42857,3,3
1886,00:19.8,2.42857,3,3
1887,00:20.1,2.42857,3,3
1888,00:20.3,2.42857,3,3
1889,00:20.6,2.42857,3,3
1890,00:20.8,2.42857,3,3
1891,00:21.1,2.42857,3,3
1892,00:21.3,2.42857,3,3
1893,00:21.6,2.42857,3,3
1894,00:21.8,2.42857,3,3
1895,00:22.1,2.42857,3,3
1896,00:22.3,2.42857,3,3
1897,00:22.6,2.42857,3,3
1898,00:22.8,2.42857,3,3
1899,00:23.1,2.42857,3,3
1900,00:23.3,2.42857,3,3
1901,00:23.6,2.42857,3,3
1902,00:23.8,2.42857,3,3
1903,00:24.1,2.42857,3,3
1904,00:24.3,2.42857,3,3
1905,00:24.6,2.42857,3,3
1906,00:24.8,2.42857,3,3
1907,00:25.1,2.42857,3,3
1908,00:25.3,2.42857,3,3
1909,00:25.6,2.42857,3,3
1910,00:25.8,2.42857,3,3
1911,00:26.1,2.42857,3,3
1912,00:26.3,2.42857,3,3
1913,00:26.6,2.42857,3,3
1914,00:26.8,2.42857,3,3
1915,00:27.1,2.42857,3,3
1916,00:27.3,2.42857,3,3
1917,00:27.6,2.42857,3,3
1918,00:27.8,2.42857,3,3
1919,00:28.1,2.42857,3,3
1920,00:28.3,2.42857,3,3
1921,00:28.6,2.42857,3,3
1922,00:28.8,2.42857,3,3
1923,00:29.1,2.42857,3,3
1924,00:29.3,2.42857,3,3
1925,00:29.6,2.42857,3,3
1926,00:29.8,2.42857,3,3
1927,00:30.1,2.42857,3,3
1928,00:30.3,2.42857,3,3
1929,00:30.6,2.42857,3,3
1930,00:30.8,2.42857,3,3
1931,00:31.1,2.42857,3,3
1932,00:31.3,2.42857,3,3
1933,00:31.6,2.42857,3,3
1934,00:31.8,2.42857,3,3
1935,00:32.1,2.42857,3,3
1936,00:32.3,2.42857,3,3
1937,00:32.6,2.42857,3,3
1938,00:32.8,2.42857,3,3
1939,00:33.1,2.42857,3,3
1940,00:33.3,2.42857,3,3
1941,00:33.6,2.42857,3,3
1942,00:33.8,2.42857,3,3
1943,00:34.1,2.42857,3,3
1944,00:34.3,2.42857,3,3
1945,00:34.6,2.42857,3,3
1946,00:34.8,2.42857,3,3
1947,00:35.1,2.42857,3,3
1948,00:35.3,2.42857,3,3
1949,00:35.6,2.42857,3,3
1950,00:35.8,2.42857,3,3
1951,00:36.1,2.42857,3,3
1952,00:36.3,2.42857,3,3
1953,00:36.6,2.42857,3,3
1954,00:36.8,2.42857,3,3
1955,00:37.1,2.42857,3,3
1956,00:37.3,2.42857,3,3
1957,00:37.6,2.42857,3,3
1958,00:37.8,2.42857,3,3
1959,00:38.1,2.42857,3,3
1960,00:38.3,2.42857,3,3
1961,00:38.6,2.42857,3,3
1962,00:38.8,2.42857,3,3
1963,00:39.1,2.42857,3,3
1964,00:39.3,2.42857,3,3
1965,00:39.6,2.42857,3,3
1966,00:39.8,2.42857,3,3
1967,00:40.1,2.42857,3,3
1968,00:40.3,2.42857,3,3
1969,00:40.6,2.42857,3,3
1970,00:40.8,2.42857,3,3
1971,00:41.1,2.42857,3,3
1972,00:41.3,2.42857,3,3
1973,00:41.6,2.42857,3,3
1974,00:41.8,2.42857,3,3
1975,00:42.1,2.42857,3,3
1976,00:42.3,2.42857,3,3
1977,00:42.5,2.42857,3,3
1978,00:42.8,2.42857,3,3
1979,00:43.1,2.42857,3,3
1980,00:43.3,2.42857,3,3
1981,00:43.6,2.42857,3,3
1982,00:43.8,2.42857,3,3
1983,00:44.1,2.42857,3,3
1984,00:44.3,2.42857,3,3
1985,00:44.6,2.42857,3,3
1986,00:44.8,2.42857,3,3
1987,00:45.1,2.42857,3,3
1988,00:45.3,2.42857,3,3
1989,00:45.5,2.42857,3,3
1990,00:45.8,2.42857,3,3
1991,00:46.0,2.42857,3,3
1992,00:46.3,2.42857,3,3
1993,00:46.5,2.42857,3,3
1994,00:46.8,2.42857,3,3
1995,00:47.0,2.42857,3,3
1996,00:47.3,2.42857,3,3
1997,00:47.5,2.42857,3,3
1998,00:47.8,2.42857,3,3
1999,00:48.0,2.42857,3,3
2000,00:48.3,2.42857,3,3
2001,00:48.5,2.42857,3,3
2002,00:48.8,2.42857,3,3
2003,00:49.0,2.42857,3,3
2004,00:49.3,2.42857,3,3
2005,00:49.5,2.42857,3,3
2006,00:49.8,2.42857,3,3
2007,00:50.0,2.42857,3,3
2008,00:50.3,2.42857,3,3
2009,00:50.5,2.42857,3,3
2010,00:50.8,2.42857,3,3
2011,00:51.0,2.42857,3,3
2012,00:51.3,2.42857,3,3
2013,00:51.5,2.42857,3,3
2014,00:51.8,2.42857,3,3
2015,00:52.0,2.42857,3,3
2016,00:52.3,2.42857,3,3
2017,00:52.5,2.42857,3,3
2018,00:52.8,2.42857,3,3
2019,00:53.0,2.42857,3,3
2020,00:53.3,2.42857,3,3
2021,00:53.5,2.42857,3,3
2022,00:53.8,2.42857,3,3
2023,00:54.0,2.42857,3,3
2024,00:54.3,2.42857,3,3
2025,00:54.5,2.42857,3,3
2026,00:54.8,2.42857,3,3
2027,00:55.0,2.42857,3,3
2028,00:55.3,2.42857,3,3
2029,00:55.5,2.42857,3,3
2030,00:55.8,2.42857,3,3
2031,00:56.0,2.42857,3,3
2032,00:56.3,2.42857,3,3
2033,00:56.5,2.42857,3,3
2034,00:56.8,2.42857,3,3
2035,00:57.0,2.42857,3,3
2036,00:57.3,2.42857,3,3
2037,00:57.5,2.42857,3,3
2038,00:57.8,2.42857,3,3
2039,00:58.0,2.42857,3,3
2040,00:58.3,2.42857,3,3
2041,00:58.5,2.42857,3,3
2042,00:58.8,2.42857,3,3
2043,00:59.0,2.42857,3,3
2044,00:59.3,2.42857,3,3
2045,00:59.5,2.42857,3,3
2046,00:59.8,2.42857,3,3
2047,01:00.0,2.42857,3,3
2048,01:00.3,2.42857,3,3
2049,01:00.5,2.42857,3,3
2050,01:00.8,2.42857,3,3
2051,01:01.0,2.42857,3,3
2052,01:01.3,2.42857,3,3
2053,01:01.5,2.42857,3,3
2054,01:01.8,2.42857,3,3
2055,01:02.0,2.42857,3,3
2056,01:02.3,2.42857,3,3
2057,01:02.5,2.42857,3,3
2058,01:02.8,2.42857,3,3
2059,01:03.0,2.42857,3,3
2060,01:03.3,2.42857,3,3
2061,01:03.5,2.42857,3,3
2062,01:03.8,2.42857,3,3
2063,01:04.0,2.42857,3,3
2064,01:04.3,2.42857,3,3
2065,01:04.5,2.42857,3,3
2066,01:04.8,2.42857,3,3
2067,01:05.0,2.42857,3,3
2068,01:05.3,2.42857,3,3
2069,01:05.5,2.42857,3,3
2070,01:05.8,2.42857,3,3
2071,01:06.0,2.42857,3,3
2072,01:06.3,2.42857,3,3
2073,01:06.5,2.42857,3,3
2074,01:06.8,2.42857,3,3
2075,01:07.0,2.42857,3,3
2076,01:07.3,2.42857,3,3
2077,01:07.5,2.42857,3,3
2078,01:07.8,2.42857,3,3
2079,01:08.0,2.42857,3,3
2080,01:08.3,2.42857,3,3
2081,01:08.5,2.42857,3,3
2082,01:08.8,2.42857,3,3
2083,01:09.0,2.42857,3,3
2084,01:09.3,2.42857,3,3
2085,01:09.5,2.42857,3,3
2086,01:09.8,2.42857,3,3
2087,01:10.0,2.42857,3,3
2088,01:10.3,2.42857,3,3
2089,01:10.5,2.42857,3,3
2090,01:10.8,2.42857,3,3
2091,01:11.0,2.42857,3,3
2092,01:11.3,2.42857,3,3
2093,01:11.5,2.42857,3,3
2094,01:11.8,2.42857,3,3
2095,01:12.0,2.42857,3,3
2096,01:12.3,2.42857,3,3
2097,01:12.5,2.42857,3,3
2098,01:12.8,2.42857,3,3
2099,01:13.0,2.42857,3,3
2100,01:13.3,2.42857,3,3
2101,01:13.5,2.42857,3,3
2102,01:13.8,2.42857,3,3
2103,01:14.0,2.42857,3,3
2104,01:14.3,2.42857,3,3
2105,01:14.5,2.42857,3,3
2106,01:14.8,2.42857,3,3
2107,01:15.0,2.42857,3,3
2108,01:15.3,2.42857,3,3
2109,01:58.7,2.85714,2.33333,5
2110,01:58.9,2.85714,2.33333,5
2111,01:59.2,2.85714,2.33333,5
2112,01:59.4,2.85714,2.33333,5
2113,01:59.7,2.85714,2.33333,5
2114,01:59.9,2.85714,2.33333,5
2115,02:00.2,2.85714,2.33333,5
2116,02:00.5,2.85714,2.33333,5
2117,02:00.7,2.85714,2.33333,5
2118,02:01.0,2.85714,2.33333,5
2119,02:01.2,2.85714,2.33333,5
2120,02:01.4,2.85714,2.33333,5
2121,02:01.7,2.85714,2.33333,5
2122,02:01.9,2.85714,2.33333,5
2123,02:02.2,2.85714,2.33333,5
2124,02:02.4,2.85714,2.33333,5
2125,02:02.7,2.85714,2.33333,5
2126,02:02.9,2.85714,2.33333,5
2127,02:03.2,2.85714,2.33333,5
2128,02:03.4,2.85714,2.33333,5
2129,02:03.7,2.85714,2.33333,5
2130,02:03.9,2.85714,2.33333,5
2131,02:04.2,2.85714,2.33333,5
2132,02:04.4,2.85714,2.33333,5
2133,02:04.7,2.85714,2.33333,5
2134,02:04.9,2.85714,2.33333,5
2135,02:05.2,2.85714,2.33333,5
2136,02:05.4,2.85714,2.33333,5
2137,02:05.7,2.85714,2.33333,5
2138,02:05.9,2.85714,2.33333,5
2139,02:06.2,2.85714,2.33333,5
2140,02:06.4,2.85714,2.33333,5
2141,02:06.7,2.85714,2.33333,5
2142,02:06.9,2.85714,2.33333,5
2143,02:07.2,2.85714,2.33333,5
2144,02:07.4,2.85714,2.33333,5
2145,02:07.7,2.85714,2.33333,5
2146,02:07.9,2.85714,2.33333,5
2147,02:08.2,2.85714,2.33333,5
2148,02:08.4,2.85714,2.33333,5
2149,02:08.7,2.85714,2.33333,5
2150,02:09.0,2.85714,2.33333,5
2151,02:09.2,2.85714,2.33333,5
2152,02:09.4,2.85714,2.33333,5
2153,02:09.7,2.85714,2.33333,5
2154,02:09.9,2.85714,2.33333,5
2155,02:10.2,2.85714,2.33333,5
2156,02:10.4,2.85714,2.33333,5
2157,02:10.7,2.85714,2.33333,5
2158,02:10.9,2.85714,2.33333,5
2159,02:11.2,2.85714,2.33333,5
2160,02:11.4,2.85714,2.33333,5
2161,02:11.7,2.85714,2.33333,5
2162,02:11.9,2.85714,2.33333,5
2163,02:12.2,2.85714,2.33333,5
2164,02:12.4,2.85714,2.33333,5
2165,02:12.7,2.85714,2.33333,5
2166,02:12.9,2.85714,2.33333,5
2167,02:13.2,2.85714,2.33333,5
2168,02:13.4,2.85714,2.33333,5
2169,02:13.7,2.85714,2.33333,5
2170,02:13.9,2.85714,2.33333,5
2171,02:14.2,2.85714,2.33333,5
2172,02:14.4,2.85714,2.33333,5
2173,02:14.7,2.85714,2.33333,5
2174,02:14.9,2.85714,2.33333,5
2175,02:15.2,2.85714,2.33333,5
2176,02:15.4,2.85714,2.33333,5
2177,02:15.7,2.85714,2.33333,5
2178,02:15.9,2.85714,2.33333,5
2179,02:16.2,2.85714,2.33333,5
2180,02:16.4,2.85714,2.33333,5
2181,02:16.7,2.85714,2.33333,5
2182,02:16.9,2.85714,2.33333,5
2183,02:17.2,2.85714,2.33333,5
2184,02:17.4,2.85714,2.33333,5
2185,02:17.7,2.85714,2.33333,5
2186,02:17.9,2.85714,2.33333,5
2187,02:18.2,2.85714,2.33333,5
2188,02:18.4,2.85714,2.33333,5
2189,02:18.7,2.85714,2.33333,5
2190,02:18.9,2.85714,2.33333,5
2191,02:19.2,2.85714,2.33333,5
2192,02:19.4,2.85714,2.33333,5
2193,02:19.7,2.85714,2.33333,5
2194,02:19.9,2.85714,2.33333,5
2195,02:20.2,2.85714,2.33333,5
2196,02:20.4,2.85714,2.33333,5
2197,02:20.7,2.85714,2.33333,5
2198,02:20.9,2.85714,2.33333,5
2199,02:21.2,2.85714,2.33333,5
2200,02:21.4,2.85714,2.33333,5
2201,02:21.7,2.85714,2.33333,5
2202,02:21.9,2.85714,2.33333,5
2203,02:22.2,2.85714,2.33333,5
2204,02:22.4,2.85714,2.33333,5
2205,02:22.7,2.85714,2.33333,5
2206,02:22.9,2.85714,2.33333,5
2207,02:23.2,2.85714,2.33333,5
2208,02:23.4,2.85714,2.33333,5
2209,02:23.7,2.85714,2.33333,5
2210,02:23.9,2.85714,2.33333,5
2211,02:24.2,2.85714,2.33333,5
2212,02:24.4,2.85714,2.33333,5
2213,02:24.7,2.85714,2.33333,5
2214,02:24.9,2.85714,2.33333,5
2215,02:25.2,2.85714,2.33333,5
2216,02:25.4,2.85714,2.33333,5
2217,02:25.7,2.85714,2.33333,5
2218,02:25.9,2.85714,2.33333,5
2219,02:26.2,2.85714,2.33333,5
2220,02:26.4,2.85714,2.33333,5
2221,02:26.7,2.85714,2.33333,5
2222,02:26.9,2.85714,2.33333,5
2223,02:27.2,2.85714,2.33333,5
2224,02:27.4,2.85714,2.33333,5
2225,02:27.7,2.85714,2.33333,5
2226,02:27.9,2.85714,2.33333,5
2227,02:28.2,2.85714,2.33333,5
2228,02:28.4,2.85714,2.33333,5
2229,02:28.7,2.85714,2.33333,5
2230,02:28.9,2.85714,2.33333,5
2231,02:29.2,2.85714,2.33333,5
2232,02:29.4,2.85714,2.33333,5
2233,02:29.7,2.85714,2.33333,5
2234,02:29.9,2.85714,2.33333,5
2235,02:30.2,2.85714,2.33333,5
2236,02:30.4,2.85714,2.33333,5
2237,02:30.7,2.85714,2.33333,5
2238,02:30.9,2.85714,2.33333,5
2239,02:31.2,2.85714,2.33333,5
2240,02:31.4,2.85714,2.33333,5
2241,02:31.7,2.85714,2.33333,5
2242,02:31.9,2.85714,2.33333,5
2243,02:32.2,2.85714,2.33333,5
2244,02:32.4,2.85714,2.33333,5
2245,02:32.7,2.85714,2.33333,5
2246,02:32.9,2.85714,2.33333,5
2247,02:33.2,2.85714,2.33333,5
2248,02:33.4,2.85714,2.33333,5
2249,02:33.7,2.85714,2.33333,5
2250,02:33.9,2.85714,2.33333,5
2251,02:34.2,2.85714,2.33333,5
2252,02:34.4,2.85714,2.33333,5
2253,02:34.7,2.85714,2.33333,5
2254,02:34.9,2.85714,2.33333,5
2255,02:35.2,2.85714,2.33333,5
2256,02:35.4,2.85714,2.33333,5
2257,02:35.7,2.85714,2.33333,5
2258,02:35.9,2.85714,2.33333,5
2259,02:36.2,2.85714,2.33333,5
2260,02:36.5,2.85714,2.33333,5
2261,02:36.7,2.85714,2.33333,5
2262,02:36.9,2.85714,2.33333,5
2263,02:37.2,2.85714,2.33333,5
2264,02:37.4,2.85714,2.33333,5
2265,02:37.7,2.85714,2.33333,5
2266,02:37.9,2.85714,2.33333,5
2267,02:38.2,2.85714,2.33333,5
2268,02:38.4,2.85714,2.33333,5
2269,02:38.7,2.85714,2.33333,5
2270,02:38.9,2.85714,2.33333,5
2271,02:39.2,2.85714,2.33333,5
2272,02:39.4,2.85714,2.33333,5
2273,02:39.7,2.85714,2.33333,5
2274,02:39.9,2.85714,2.33333,5
2275,02:40.2,2.85714,2.33333,5
2276,02:40.4,2.85714,2.33333,5
2277,02:40.7,2.85714,2.33333,5
2278,02:40.9,2.85714,2.33333,5
2279,02:41.2,2.85714,2.33333,5
2280,02:41.4,2.85714,2.33333,5
2281,02:41.7,2.85714,2.33333,5
2282,02:41.9,2.85714,2.33333,5
2283,02:42.2,2.85714,2.33333,5
2284,02:42.4,2.85714,2.33333,5
2285,02:42.7,2.85714,2.33333,5
2286,02:42.9,2.85714,2.33333,5
2287,02:43.2,2.85714,2.33333,5
2288,02:43.4,2.85714,2.33333,5
2289,02:43.7,2.85714,2.33333,5
2290,02:43.9,2.85714,2.33333,5
2291,02:44.2,2.85714,2.33333,5
2292,02:44.4,2.85714,2.33333,5
2293,02:44.7,2.85714,2.33333,5
2294,02:44.9,2.85714,2.33333,5
2295,02:45.2,2.85714,2.33333,5
2296,02:45.4,2.85714,2.33333,5
2297,02:45.7,2.85714,2.33333,5
2298,02:45.9,2.85714,2.33333,5
2299,02:46.2,2.85714,2.33333,5
2300,02:46.4,2.85714,2.33333,5
2301,02:46.7,2.85714,2.33333,5
2302,02:46.9,2.85714,2.33333,5
2303,02:47.2,2.85714,2.33333,5
2304,02:47.4,2.85714,2.33333,5
2305,02:47.7,2.85714,2.33333,5
2306,02:47.9,2.85714,2.33333,5
2307,02:48.2,2.85714,2.33333,5
2308,02:48.4,2.85714,2.33333,5
2309,02:48.7,2.85714,2.33333,5
2310,02:48.9,2.85714,2.33333,5
2311,02:49.2,2.85714,2.33333,5
2312,02:49.4,2.85714,2.33333,5
2313,02:49.7,2.85714,2.33333,5
2314,02:49.9,2.85714,2.33333,5
2315,02:50.2,2.85714,2.33333,5
2316,02:50.4,2.85714,2.33333,5
2317,02:50.7,2.85714,2.33333,5
2318,02:50.9,2.85714,2.33333,5
2319,02:51.2,2.85714,2.33333,5
2320,02:51.4,2.85714,2.33333,5
2321,02:51.7,2.85714,2.33333,5
2322,02:51.9,2.85714,2.33333,5
2323,02:52.2,2.85714,2.33333,5
2324,02:52.4,2.85714,2.33333,5
2325,02:52.7,2.85714,2.33333,5
2326,02:52.9,2.85714,2.33333,5
2327,02:53.2,2.85714,2.33333,5
2328,02:53.4,2.85714,2.33333,5
2329,02:53.7,2.85714,2.33333,5
2330,02:53.9,2.85714,2.33333,5
2331,02:54.2,2.85714,2.33333,5
2332,02:54.4,2.85714,2.33333,5
2333,02:54.7,2.85714,2.33333,5
2334,02:54.9,2.85714,2.33333,5
2335,02:55.2,2.85714,2.33333,5
2336,02:55.4,2.85714,2.33333,5
2337,02:55.7,2.85714,2.33333,5
2338,02:55.9,2.85714,2.33333,5
2339,02:56.2,2.85714,2.33333,5
2340,02:56.4,2.85714,2.33333,5
2341,02:56.7,2.85714,2.33333,5
2342,02:56.9,2.85714,2.33333,5
2343,02:57.2,2.85714,2.33333,5
2344,02:57.4,2.85714,2.33333,5
2345,02:57.7,2.85714,2.33333,5
2346,02:57.9,2.85714,2.33333,5
2347,02:58.2,2.85714,2.33333,5
2348,02:58.4,2.85714,2.33333,5
2349,02:58.7,2.85714,2.33333,5
2350,02:58.9,2.85714,2.33333,5
2351,02:59.2,2.85714,2.33333,5
2352,02:59.4,2.85714,2.33333,5
2353,02:59.7,2.85714,2.33333,5
2354,02:59.9,2.85714,2.33333,5
2355,03:00.2,2.85714,2.33333,5
2356,03:00.4,2.85714,2.33333,5
2357,03:00.7,2.85714,2.33333,5
2358,03:00.9,2.85714,2.33333,5
2359,03:01.2,2.85714,2.33333,5
2360,03:01.4,2.85714,2.33333,5
2361,03:01.7,2.85714,2.33333,5
2362,03:01.9,2.85714,2.33333,5
2363,03:02.2,2.85714,2.33333,5
2364,03:02.4,2.85714,2.33333,5
2365,03:02.7,2.85714,2.33333,5
2366,03:02.9,2.85714,2.33333,5
2367,03:03.2,2.85714,2.33333,5
2368,03:03.4,2.85714,2.33333,5
2369,03:03.6,2.85714,2.33333,5
2370,03:03.9,2.85714,2.33333,5
2371,03:04.2,2.85714,2.33333,5
2372,03:04.4,2.85714,2.33333,5
2373,03:04.7,2.85714,2.33333,5
2374,03:04.9,2.85714,2.33333,5
2375,03:05.2,2.85714,2.33333,5
2376,03:05.4,2.85714,2.33333,5
2377,03:05.7,2.85714,2.33333,5
2378,03:05.9,2.85714,2.33333,5
2379,03:06.2,2.85714,2.33333,5
2380,03:06.4,2.85714,2.33333,5
2381,03:06.6,2.85714,2.33333,5
2382,03:06.9,2.85714,2.33333,5
2383,03:07.2,2.85714,2.33333,5
2384,03:07.4,2.85714,2.33333,5
2385,03:07.6,2.85714,2.33333,5
2386,03:07.9,2.85714,2.33333,5
2387,03:08.2,2.85714,2.33333,5
2388,03:08.4,2.85714,2.33333,5
2389,03:08.6,2.85714,2.33333,5
2390,03:08.9,2.85714,2.33333,5
2391,03:09.2,2.85714,2.33333,5
2392,03:09.4,2.85714,2.33333,5
2393,03:09.6,2.85714,2.33333,5
2394,03:09.9,2.85714,2.33333,5
2395,03:10.2,2.85714,2.33333,5
2396,03:10.4,2.85714,2.33333,5
2397,03:10.7,2.85714,2.33333,5
2398,03:10.9,2.85714,2.33333,5
2399,03:11.2,2.85714,2.33333,5
2400,03:11.4,2.85714,2.33333,5
2401,03:11.6,2.85714,2.33333,5
2402,03:11.9,2.85714,2.33333,5
2403,03:12.1,2.85714,2.33333,5
2404,03:12.4,2.85714,2.33333,5
2405,03:12.6,2.85714,2.33333,5
2406,03:12.9,2.85714,2.33333,5
2407,03:13.1,2.85714,2.33333,5
2408,03:13.4,2.85714,2.33333,5
2409,03:13.7,2.85714,2.33333,5
2410,03:13.9,2.85714,2.33333,5
2411,03:14.1,2.85714,2.33333,5
2412,03:14.4,2.85714,2.33333,5
2413,03:14.6,2.85714,2.33333,5
2414,03:14.9,2.85714,2.33333,5
2415,03:15.1,2.85714,2.33333,5
2416,03:15.4,2.85714,2.33333,5
2417,03:15.6,2.85714,2.33333,5
2418,03:15.9,2.85714,2.33333,5
2419,03:16.1,2.85714,2.33333,5
2420,03:16.4,2.85714,2.33333,5
2421,03:16.6,2.85714,2.33333,5
2422,03:16.9,2.85714,2.33333,5
2423,03:17.1,2.85714,2.33333,5
2424,03:17.4,2.85714,2.33333,5
2425,03:17.6,2.85714,2.33333,5
2426,03:17.9,2.85714,2.33333,5
2427,03:18.1,2.85714,2.33333,5
2428,03:18.4,2.85714,2.33333,5
2429,03:18.6,2.85714,2.33333,5
2430,03:18.9,2.85714,2.33333,5
2431,03:19.1,2.85714,2.33333,5
2432,03:19.4,2.85714,2.33333,5
2433,03:19.6,2.85714,2.33333,5
2434,03:19.9,2.85714,2.33333,5
2435,03:20.1,2.85714,2.33333,5
2436,03:20.4,2.85714,2.33333,5
2437,03:20.6,2.85714,2.33333,5
2438,03:20.9,2.85714,2.33333,5
2439,03:21.1,2.85714,2.33333,5
2440,03:21.4,2.85714,2.33333,5
2441,03:21.6,2.85714,2.33333,5
2442,03:21.9,2.85714,2.33333,5
2443,03:22.1,2.85714,2.33333,5
2444,03:22.4,2.85714,2.33333,5
2445,03:22.6,2.85714,2.33333,5
2446,03:22.9,2.85714,2.33333,5
2447,03:23.1,2.85714,2.33333,5
2448,03:23.4,2.85714,2.33333,5
2449,03:23.6,2.85714,2.33333,5
2450,03:23.9,2.85714,2.33333,5
2451,03:24.1,2.85714,2.33333,5
2452,03:24.4,2.85714,2.33333,5
2453,03:24.6,2.85714,2.33333,5
2454,03:24.9,2.85714,2.33333,5
2455,03:25.1,2.85714,2.33333,5
2456,03:25.4,2.85714,2.33333,5
2457,03:25.6,2.85714,2.33333,5
2458,03:25.9,2.85714,2.33333,5
2459,03:26.1,2.85714,2.33333,5
2460,03:26.4,2.85714,2.33333,5
2461,03:26.6,2.85714,2.33333,5
2462,03:26.9,2.85714,2.33333,5
2463,03:27.1,2.85714,2.33333,5
2464,03:27.4,2.85714,2.33333,5
2465,03:27.6,2.85714,2.33333,5
2466,03:27.9,2.85714,2.33333,5
2467,03:28.1,2.85714,2.33333,5
2468,03:28.4,2.85714,2.33333,5
2469,03:28.6,2.85714,2.33333,5
2470,03:28.9,2.85714,2.33333,5
2471,03:29.1,2.85714,2.33333,5
2472,03:29.4,2.85714,2.33333,5
2473,03:29.6,2.85714,2.33333,5
2474,03:29.9,2.85714,2.33333,5
2475,03:30.1,2.85714,2.33333,5
2476,03:30.4,2.85714,2.33333,5
2477,03:30.6,2.85714,2.33333,5
2478,03:30.9,2.85714,2.33333,5
2479,03:31.1,2.85714,2.33333,5
2480,03:31.4,2.85714,2.33333,5
2481,03:31.6,2.85714,2.33333,5
2482,03:31.9,2.85714,2.33333,5
2483,03:32.1,2.85714,2.33333,5
2484,03:32.4,2.85714,2.33333,5
2485,03:32.6,2.85714,2.33333,5
2486,03:32.9,2.85714,2.33333,5
2487,03:33.1,2.85714,2.33333,5
2488,03:33.4,2.85714,2.33333,5
2489,03:33.6,2.85714,2.33333,5
2490,03:33.9,2.85714,2.33333,5
2491,03:34.1,2.85714,2.33333,5
2492,03:34.4,2.85714,2.33333,5
2493,03:34.6,2.85714,2.33333,5
2494,03:34.9,2.85714,2.33333,5
2495,03:35.1,2.85714,2.33333,5
2496,03:35.4,2.85714,2.33333,5
2497,03:35.6,2.85714,2.33333,5
2498,03:35.9,2.85714,2.33333,5
2499,03:36.1,2.85714,2.33333,5
2500,03:36.4,2.85714,2.33333,5
2501,03:36.6,2.85714,2.33333,5
2502,03:36.9,2.85714,2.33333,5
2503,03:37.1,2.85714,2.33333,5
2504,03:37.4,2.85714,2.33333,5
2505,03:37.6,2.85714,2.33333,5
2506,03:37.9,2.85714,2.33333,5
2507,03:38.1,2.85714,2.33333,5
2508,03:38.4,2.85714,2.33333,5
2509,03:38.6,2.85714,2.33333,5
2510,03:38.9,2.85714,2.33333,5
2511,03:39.1,2.85714,2.33333,5
2512,03:39.4,2.85714,2.33333,5
2513,03:39.6,2.85714,2.33333,5
2514,03:39.9,2.85714,2.33333,5
2515,03:40.1,2.85714,2.33333,5
2516,03:40.4,2.85714,2.33333,5
2517,03:40.6,2.85714,2.33333,5
2518,03:40.9,2.85714,2.33333,5
2519,03:41.1,2.85714,2.33333,5
2520,03:41.4,2.85714,2.33333,5
2521,03:41.6,2.85714,2.33333,5
2522,03:41.9,2.85714,2.33333,5
2523,03:42.1,2.85714,2.33333,5
2524,03:42.4,2.85714,2.33333,5
2525,03:42.6,2.85714,2.33333,5
2526,03:42.9,2.85714,2.33333,5
2527,03:43.1,2.85714,2.33333,5
2528,03:43.4,2.85714,2.33333,5
2529,03:43.6,2.85714,2.33333,5
2530,03:43.9,2.85714,2.33333,5
2531,03:44.1,2.85714,2.33333,5
2532,03:44.4,2.85714,2.33333,5
2533,03:44.6,2.85714,2.33333,5
2534,03:44.9,2.85714,2.33333,5
2535,03:45.1,2.85714,2.33333,5
2536,03:45.4,2.85714,2.33333,5
2537,03:45.6,2.85714,2.33333,5
2538,03:45.9,2.85714,2.33333,5
2539,03:46.1,2.85714,2.33333,5
2540,03:46.4,2.85714,2.33333,5
2541,03:46.6,2.85714,2.33333,5
2542,03:46.9,2.85714,2.33333,5
2543,03:47.1,2.85714,2.33333,5
2544,03:47.4,2.85714,2.33333,5
2545,03:47.6,2.85714,2.33333,5
2546,03:47.9,2.85714,2.33333,5
2547,03:48.1,2.85714,2.33333,5
2548,03:48.4,2.85714,2.33333,5
2549,03:48.6,2.85714,2.33333,5
2550,03:48.9,2.85714,2.33333,5
2551,03:49.1,2.85714,2.33333,5
2552,03:49.4,2.85714,2.33333,5
2553,03:49.6,2.85714,2.33333,5
2554,03:49.9,2.85714,2.33333,5
2555,03:50.1,2.85714,2.33333,5
2556,03:50.4,2.85714,2.33333,5
2557,03:50.6,2.85714,2.33333,5
2558,03:50.9,2.85714,2.33333,5
2559,03:51.1,2.85714,2.33333,5
2560,03:51.4,2.85714,2.33333,5
2561,03:51.6,2.85714,2.33333,5
2562,03:51.9,2.85714,2.33333,5
2563,03:52.1,2.85714,2.33333,5
2564,03:52.4,2.85714,2.33333,5
2565,03:52.6,2.85714,2.33333,5
2566,03:52.9,2.85714,2.33333,5
2567,03:53.1,2.85714,2.33333,5
2568,03:53.4,2.85714,2.33333,5
2569,03:53.6,2.85714,2.33333,5
2570,03:53.9,2.85714,2.33333,5
2571,03:54.1,2.85714,2.33333,5
2572,03:54.4,2.85714,2.33333,5
2573,03:54.6,2.85714,2.33333,5
2574,03:54.9,2.85714,2.33333,5
2575,03:55.1,2.85714,2.33333,5
2576,03:55.4,2.85714,2.33333,5
2577,03:55.6,2.85714,2.33333,5
2578,03:55.9,2.85714,2.33333,5
2579,03:56.1,2.85714,2.33333,5
2580,03:56.4,2.85714,2.33333,5
2581,03:56.6,2.85714,2.33333,5
2582,03:56.9,2.85714,2.33333,5
2583,03:57.1,2.85714,2.33333,5
2584,03:57.4,2.85714,2.33333,5
2585,03:57.6,2.85714,2.33333,5
2586,03:57.9,2.85714,2.33333,5
2587,03:58.1,2.85714,2.33333,5
2588,03:58.4,2.85714,2.33333,5
2589,03:58.6,2.85714,2.33333,5
2590,03:58.9,2.85714,2.33333,5
2591,03:59.1,2.85714,2.33333,5
2592,03:59.4,2.85714,2.33333,5
2593,03:59.6,2.85714,2.33333,5
2594,03:59.9,2.85714,2.33333,5
2595,04:00.1,2.85714,2.33333,5
2596,04:00.4,2.85714,2.33333,5
2597,04:49.1,2,3.66667,2
2598,04:49.3,2,3.66667,2
2599,04:49.6,2,3.66667,2
2600,04:49.8,2,3.66667,2
2601,04:50.1,2,3.66667,2
2602,04:50.3,2,3.66667,2
2603,04:50.6,2,3.66667,2
2604,04:50.8,2,3.66667,2
2605,04:51.1,2,3.66667,2
2606,04:51.3,2,3.66667,2
2607,04:51.6,2,3.66667,2
2608,04:51.8,2,3.66667,2
2609,04:52.1,2,3.66667,2
2610,04:52.3,2,3.66667,2
2611,04:52.6,2,3.66667,2
2612,04:52.8,2,3.66667,2
2613,04:53.1,2,3.66667,2
2614,04:53.3,2,3.66667,2
2615,04:53.6,2,3.66667,2
2616,04:53.8,2,3.66667,2
2617,04:54.1,2,3.66667,2
2618,04:54.3,2,3.66667,2
2619,04:54.6,2,3.66667,2
2620,04:54.8,2,3.66667,2
2621,04:55.1,2,3.66667,2
2622,04:55.3,2,3.66667,2
2623,04:55.6,2,3.66667,2
2624,04:55.8,2,3.66667,2
2625,04:56.1,2,3.66667,2
2626,04:56.3,2,3.66667,2
2627,04:56.6,2,3.66667,2
2628,04:56.8,2,3.66667,2
2629,04:57.1,2,3.66667,2
2630,04:57.3,2,3.66667,2
2631,04:57.6,2,3.66667,2
2632,04:57.8,2,3.66667,2
2633,04:58.1,2,3.66667,2
2634,04:58.3,2,3.66667,2
2635,04:58.6,2,3.66667,2
2636,04:58.8,2,3.66667,2
2637,04:59.1,2,3.66667,2
2638,04:59.3,2,3.66667,2
2639,04:59.6,2,3.66667,2
2640,04:59.8,2,3.66667,2
2641,05:00.1,2,3.66667,2
2642,05:00.3,2,3.66667,2
2643,05:00.6,2,3.66667,2
2644,05:00.8,2,3.66667,2
2645,05:01.1,2,3.66667,2
2646,05:01.3,2,3.66667,2
2647,05:01.6,2,3.66667,2
2648,05:01.8,2,3.66667,2
2649,05:02.1,2,3.66667,2
2650,05:02.3,2,3.66667,2
2651,05:02.6,2,3.66667,2
2652,05:02.8,2,3.66667,2
2653,05:03.1,2,3.66667,2
2654,05:03.3,2,3.66667,2
2655,05:03.6,2,3.66667,2
2656,05:03.8,2,3.66667,2
2657,05:04.1,2,3.66667,2
2658,05:04.3,2,3.66667,2
2659,05:04.6,2,3.66667,2
2660,05:04.8,2,3.66667,2
2661,05:05.1,2,3.66667,2
2662,05:05.3,2,3.66667,2
2663,05:05.6,2,3.66667,2
2664,05:05.8,2,3.66667,2
2665,05:06.1,2,3.66667,2
2666,05:06.3,2,3.66667,2
2667,05:06.6,2,3.66667,2
2668,05:06.8,2,3.66667,2
2669,05:07.1,2,3.66667,2
2670,05:07.3,2,3.66667,2
2671,05:07.6,2,3.66667,2
2672,05:07.8,2,3.66667,2
2673,05:08.1,2,3.66667,2
2674,05:08.3,2,3.66667,2
2675,05:08.6,2,3.66667,2
2676,05:08.9,2,3.66667,2
2677,05:09.1,2,3.66667,2
2678,05:09.3,2,3.66667,2
2679,05:09.6,2,3.66667,2
2680,05:09.8,2,3.66667,2
2681,05:10.1,2,3.66667,2
2682,05:10.3,2,3.66667,2
2683,05:10.6,2,3.66667,2
2684,05:10.8,2,3.66667,2
2685,05:11.1,2,3.66667,2
2686,05:11.3,2,3.66667,2
2687,05:11.6,2,3.66667,2
2688,05:11.8,2,3.66667,2
2689,05:12.1,2,3.66667,2
2690,05:12.3,2,3.66667,2
2691,05:12.6,2,3.66667,2
2692,05:12.8,2,3.66667,2
2693,05:13.1,2,3.66667,2
2694,05:13.3,2,3.66667,2
2695,05:13.6,2,3.66667,2
2696,05:13.8,2,3.66667,2
2697,05:14.1,2,3.66667,2
2698,05:14.3,2,3.66667,2
2699,05:14.6,2,3.66667,2
2700,05:14.8,2,3.66667,2
2701,05:15.1,2,3.66667,2
2702,05:15.3,2,3.66667,2
2703,05:15.6,2,3.66667,2
2704,05:15.8,2,3.66667,2
2705,05:16.1,2,3.66667,2
2706,05:16.3,2,3.66667,2
2707,05:16.6,2,3.66667,2
2708,05:16.8,2,3.66667,2
2709,05:17.1,2,3.66667,2
2710,05:17.3,2,3.66667,2
2711,05:17.6,2,3.66667,2
2712,05:17.8,2,3.66667,2
2713,05:18.1,2,3.66667,2
2714,05:18.3,2,3.66667,2
2715,05:18.6,2,3.66667,2
2716,05:18.8,2,3.66667,2
2717,05:19.1,2,3.66667,2
2718,05:19.3,2,3.66667,2
2719,05:19.6,2,3.66667,2
2720,05:19.8,2,3.66667,2
2721,05:20.1,2,3.66667,2
2722,05:20.3,2,3.66667,2
2723,05:20.6,2,3.66667,2
2724,05:20.8,2,3.66667,2
2725,05:21.1,2,3.66667,2
2726,05:21.3,2,3.66667,2
2727,05:21.6,2,3.66667,2
2728,05:21.8,2,3.66667,2
2729,05:22.1,2,3.66667,2
2730,05:22.3,2,3.66667,2
2731,05:22.6,2,3.66667,2
2732,05:22.8,2,3.66667,2
2733,05:23.1,2,3.66667,2
2734,05:23.3,2,3.66667,2
2735,05:23.6,2,3.66667,2
2736,05:23.8,2,3.66667,2
2737,05:24.1,2,3.66667,2
2738,05:24.3,2,3.66667,2
2739,05:24.6,2,3.66667,2
2740,05:24.8,2,3.66667,2
2741,05:25.1,2,3.66667,2
2742,05:25.3,2,3.66667,2
2743,05:25.6,2,3.66667,2
2744,05:25.8,2,3.66667,2
2745,05:26.1,2,3.66667,2
2746,05:26.3,2,3.66667,2
2747,05:26.6,2,3.66667,2
2748,05:26.8,2,3.66667,2
2749,05:27.1,2,3.66667,2
2750,05:27.3,2,3.66667,2
2751,05:27.6,2,3.66667,2
2752,05:27.8,2,3.66667,2
2753,05:28.1,2,3.66667,2
2754,05:28.3,2,3.66667,2
2755,05:28.6,2,3.66667,2
2756,05:28.8,2,3.66667,2
2757,05:29.1,2,3.66667,2
2758,05:29.3,2,3.66667,2
2759,05:29.6,2,3.66667,2
2760,05:29.8,2,3.66667,2
2761,05:30.1,2,3.66667,2
2762,05:30.3,2,3.66667,2
2763,05:30.6,2,3.66667,2
2764,05:30.8,2,3.66667,2
2765,05:31.1,2,3.66667,2
2766,05:31.3,2,3.66667,2
2767,05:31.6,2,3.66667,2
2768,05:31.8,2,3.66667,2
2769,05:32.0,2,3.66667,2
2770,05:32.3,2,3.66667,2
2771,05:32.6,2,3.66667,2
2772,05:32.8,2,3.66667,2
2773,05:33.1,2,3.66667,2
2774,05:33.3,2,3.66667,2
2775,05:33.6,2,3.66667,2
2776,05:33.8,2,3.66667,2
2777,05:34.0,2,3.66667,2
2778,05:34.3,2,3.66667,2
2779,05:34.5,2,3.66667,2
2780,05:34.8,2,3.66667,2
2781,05:35.1,2,3.66667,2
2782,05:35.3,2,3.66667,2
2783,05:35.6,2,3.66667,2
2784,05:35.8,2,3.66667,2
2785,05:36.0,2,3.66667,2
2786,05:36.3,2,3.66667,2
2787,05:36.6,2,3.66667,2
2788,05:36.8,2,3.66667,2
2789,05:37.0,2,3.66667,2
2790,05:37.3,2,3.66667,2
2791,05:37.6,2,3.66667,2
2792,05:37.8,2,3.66667,2
2793,05:38.0,2,3.66667,2
2794,05:38.3,2,3.66667,2
2795,05:38.5,2,3.66667,2
2796,05:38.8,2,3.66667,2
2797,05:39.0,2,3.66667,2
2798,05:39.3,2,3.66667,2
2799,05:39.5,2,3.66667,2
2800,05:39.8,2,3.66667,2
2801,05:40.0,2,3.66667,2
2802,05:40.3,2,3.66667,2
2803,05:40.5,2,3.66667,2
2804,05:40.8,2,3.66667,2
2805,05:41.0,2,3.66667,2
2806,05:41.3,2,3.66667,2
2807,05:41.5,2,3.66667,2
2808,05:41.8,2,3.66667,2
2809,05:42.0,2,3.66667,2
2810,05:42.3,2,3.66667,2
2811,05:42.5,2,3.66667,2
2812,05:42.8,2,3.66667,2
2813,05:43.0,2,3.66667,2
2814,05:43.3,2,3.66667,2
2815,05:43.5,2,3.66667,2
2816,05:43.8,2,3.66667,2
2817,05:44.0,2,3.66667,2
2818,05:44.3,2,3.66667,2
2819,05:44.5,2,3.66667,2
2820,05:44.8,2,3.66667,2
2821,05:45.0,2,3.66667,2
2822,05:45.3,2,3.66667,2
2823,05:45.5,2,3.66667,2
2824,05:45.8,2,3.66667,2
2825,05:46.0,2,3.66667,2
2826,05:46.3,2,3.66667,2
2827,05:46.5,2,3.66667,2
2828,05:46.8,2,3.66667,2
2829,05:47.0,2,3.66667,2
2830,05:47.3,2,3.66667,2
2831,05:47.5,2,3.66667,2
2832,05:47.8,2,3.66667,2
2833,05:48.0,2,3.66667,2
2834,05:48.3,2,3.66667,2
2835,05:48.5,2,3.66667,2
2836,05:48.8,2,3.66667,2
2837,05:49.1,2,3.66667,2
2838,05:49.3,2,3.66667,2
2839,05:49.5,2,3.66667,2
2840,05:49.8,2,3.66667,2
2841,05:50.0,2,3.66667,2
2842,05:50.3,2,3.66667,2
2843,05:50.5,2,3.66667,2
2844,05:50.8,2,3.66667,2
2845,05:51.0,2,3.66667,2
2846,05:51.3,2,3.66667,2
2847,05:51.5,2,3.66667,2
2848,05:51.8,2,3.66667,2
2849,05:52.0,2,3.66667,2
2850,05:52.3,2,3.66667,2
2851,05:52.5,2,3.66667,2
2852,05:52.8,2,3.66667,2
2853,05:53.0,2,3.66667,2
2854,05:53.3,2,3.66667,2
2855,05:53.5,2,3.66667,2
2856,05:53.8,2,3.66667,2
2857,05:54.0,2,3.66667,2
2858,05:54.3,2,3.66667,2
2859,05:54.5,2,3.66667,2
2860,05:54.8,2,3.66667,2
2861,05:55.0,2,3.66667,2
2862,05:55.3,2,3.66667,2
2863,05:55.5,2,3.66667,2
2864,05:55.8,2,3.66667,2
2865,05:56.0,2,3.66667,2
2866,05:56.3,2,3.66667,2
2867,05:56.5,2,3.66667,2
2868,05:56.8,2,3.66667,2
2869,05:57.0,2,3.66667,2
2870,05:57.3,2,3.66667,2
2871,05:57.5,2,3.66667,2
2872,05:57.8,2,3.66667,2
2873,05:58.0,2,3.66667,2
2874,05:58.3,2,3.66667,2
2875,05:58.5,2,3.66667,2
2876,05:58.8,2,3.66667,2
2877,05:59.0,2,3.66667,2
2878,05:59.3,2,3.66667,2
2879,05:59.5,2,3.66667,2
2880,05:59.8,2,3.66667,2
2881,06:00.0,2,3.66667,2
2882,06:00.3,2,3.66667,2
2883,06:00.5,2,3.66667,2
2884,06:00.8,2,3.66667,2
2885,06:01.0,2,3.66667,2
2886,06:01.3,2,3.66667,2
2887,06:01.5,2,3.66667,2
2888,06:01.8,2,3.66667,2
2889,06:02.0,2,3.66667,2
2890,06:02.3,2,3.66667,2
2891,06:02.5,2,3.66667,2
2892,06:02.8,2,3.66667,2
2893,06:03.0,2,3.66667,2
2894,06:03.3,2,3.66667,2
2895,06:03.5,2,3.66667,2
2896,06:03.8,2,3.66667,2
2897,06:04.0,2,3.66667,2
2898,06:04.3,2,3.66667,2
2899,06:04.5,2,3.66667,2
2900,06:04.8,2,3.66667,2
2901,06:05.0,2,3.66667,2
2902,06:05.3,2,3.66667,2
2903,06:05.5,2,3.66667,2
2904,06:05.8,2,3.66667,2
2905,06:06.0,2,3.66667,2
2906,06:06.3,2,3.66667,2
2907,06:06.5,2,3.66667,2
2908,06:06.8,2,3.66667,2
2909,06:07.0,2,3.66667,2
2910,06:07.3,2,3.66667,2
2911,06:07.5,2,3.66667,2
2912,06:07.8,2,3.66667,2
2913,06:08.0,2,3.66667,2
2914,06:08.3,2,3.66667,2
2915,06:08.5,2,3.66667,2
2916,06:08.8,2,3.66667,2
2917,06:09.0,2,3.66667,2
2918,06:09.3,2,3.66667,2
2919,06:09.5,2,3.66667,2
2920,06:09.8,2,3.66667,2
2921,06:10.0,2,3.66667,2
2922,06:10.3,2,3.66667,2
2923,06:10.5,2,3.66667,2
2924,06:10.8,2,3.66667,2
2925,06:11.0,2,3.66667,2
2926,06:11.3,2,3.66667,2
2927,06:11.5,2,3.66667,2
2928,06:11.8,2,3.66667,2
2929,06:12.0,2,3.66667,2
2930,06:12.3,2,3.66667,2
2931,06:12.5,2,3.66667,2
2932,06:12.8,2,3.66667,2
2933,06:13.0,2,3.66667,2
2934,06:13.3,2,3.66667,2
2935,06:13.5,2,3.66667,2
2936,06:13.8,2,3.66667,2
2937,06:14.0,2,3.66667,2
2938,06:14.3,2,3.66667,2
2939,06:14.5,2,3.66667,2
2940,06:14.8,2,3.66667,2
2941,06:15.0,2,3.66667,2
2942,06:15.3,2,3.66667,2
2943,06:15.5,2,3.66667,2
2944,06:15.8,2,3.66667,2
2945,06:16.0,2,3.66667,2
2946,06:16.3,2,3.66667,2
2947,06:16.5,2,3.66667,2
2948,06:16.8,2,3.66667,2
2949,06:17.0,2,3.66667,2
2950,06:17.3,2,3.66667,2
2951,06:17.5,2,3.66667,2
2952,06:17.8,2,3.66667,2
2953,06:18.0,2,3.66667,2
2954,06:18.3,2,3.66667,2
2955,06:18.5,2,3.66667,2
2956,06:18.8,2,3.66667,2
2957,06:19.0,2,3.66667,2
2958,06:19.3,2,3.66667,2
2959,06:19.5,2,3.66667,2
2960,06:19.8,2,3.66667,2
2961,06:20.0,2,3.66667,2
2962,06:20.3,2,3.66667,2
2963,06:20.5,2,3.66667,2
2964,06:20.8,2,3.66667,2
2965,06:21.0,2,3.66667,2
2966,06:21.3,2,3.66667,2
2967,06:21.5,2,3.66667,2
2968,06:21.8,2,3.66667,2
2969,06:22.0,2,3.66667,2
2970,06:22.3,2,3.66667,2
2971,06:22.5,2,3.66667,2
2972,06:22.8,2,3.66667,2
2973,06:23.0,2,3.66667,2
2974,06:23.3,2,3.66667,2
2975,06:23.5,2,3.66667,2
2976,06:23.8,2,3.66667,2
2977,06:24.0,2,3.66667,2
2978,06:24.3,2,3.66667,2
2979,06:24.5,2,3.66667,2
2980,06:24.8,2,3.66667,2
2981,06:25.0,2,3.66667,2
2982,06:25.3,2,3.66667,2
2983,06:25.5,2,3.66667,2
2984,06:25.8,2,3.66667,2
2985,06:26.0,2,3.66667,2
2986,06:26.3,2,3.66667,2
2987,06:26.5,2,3.66667,2
2988,06:26.8,2,3.66667,2
2989,06:27.0,2,3.66667,2
2990,06:27.3,2,3.66667,2
2991,06:27.5,2,3.66667,2
2992,06:27.8,2,3.66667,2
2993,06:28.0,2,3.66667,2
2994,06:28.3,2,3.66667,2
2995,06:28.5,2,3.66667,2
2996,06:28.8,2,3.66667,2
2997,06:29.0,2,3.66667,2
2998,06:29.3,2,3.66667,2
2999,06:29.5,2,3.66667,2
3000,06:29.8,2,3.66667,2
3001,06:30.0,2,3.66667,2
3002,06:30.3,2,3.66667,2
3003,06:30.5,2,3.66667,2
3004,06:30.8,2,3.66667,2
3005,06:31.0,2,3.66667,2
3006,06:31.3,2,3.66667,2
3007,06:31.5,2,3.66667,2
3008,06:31.8,2,3.66667,2
3009,06:32.0,2,3.66667,2
3010,06:32.3,2,3.66667,2
3011,06:32.5,2,3.66667,2
3012,06:32.8,2,3.66667,2
3013,06:33.0,2,3.66667,2
3014,06:33.3,2,3.66667,2
3015,06:33.5,2,3.66667,2
3016,06:33.8,2,3.66667,2
3017,06:34.0,2,3.66667,2
3018,06:34.3,2,3.66667,2
3019,06:34.5,2,3.66667,2
3020,06:34.8,2,3.66667,2
3021,06:35.0,2,3.66667,2
3022,06:35.3,2,3.66667,2
3023,06:35.5,2,3.66667,2
3024,06:35.8,2,3.66667,2
3025,06:36.0,2,3.66667,2
3026,06:36.3,2,3.66667,2
3027,06:36.5,2,3.66667,2
3028,06:36.8,2,3.66667,2
3029,06:37.0,2,3.66667,2
3030,06:37.3,2,3.66667,2
3031,06:37.5,2,3.66667,2
3032,06:37.8,2,3.66667,2
3033,06:38.0,2,3.66667,2
3034,06:38.3,2,3.66667,2
3035,06:38.5,2,3.66667,2
3036,06:38.8,2,3.66667,2
3037,06:39.0,2,3.66667,2
3038,06:39.3,2,3.66667,2
3039,06:39.5,2,3.66667,2
3040,06:39.8,2,3.66667,2
3041,06:40.0,2,3.66667,2
3042,06:40.3,2,3.66667,2
3043,06:40.5,2,3.66667,2
3044,06:40.8,2,3.66667,2
3045,06:41.0,2,3.66667,2
3046,06:41.3,2,3.66667,2
3047,06:41.5,2,3.66667,2
3048,06:41.8,2,3.66667,2
3049,06:42.0,2,3.66667,2
3050,06:42.3,2,3.66667,2
3051,06:42.5,2,3.66667,2
3052,06:42.8,2,3.66667,2
3053,06:43.0,2,3.66667,2
3054,06:43.3,2,3.66667,2
3055,06:43.5,2,3.66667,2
3056,06:43.8,2,3.66667,2
3057,06:44.0,2,3.66667,2
3058,06:44.3,2,3.66667,2
3059,06:44.5,2,3.66667,2
3060,06:44.7,2,3.66667,2
3061,06:45.0,2,3.66667,2
3062,06:45.3,2,3.66667,2
3063,06:45.5,2,3.66667,2
3064,06:45.8,2,3.66667,2
3065,06:46.0,2,3.66667,2
3066,06:46.2,2,3.66667,2
3067,06:46.5,2,3.66667,2
3068,06:46.7,2,3.66667,2
3069,06:47.0,2,3.66667,2
3070,06:47.2,2,3.66667,2
3071,06:47.5,2,3.66667,2
3072,06:47.8,2,3.66667,2
3073,06:48.0,2,3.66667,2
3074,06:48.3,2,3.66667,2
3075,06:48.5,2,3.66667,2
3076,06:48.7,2,3.66667,2
3077,06:49.0,2,3.66667,2
3078,06:49.2,2,3.66667,2
3079,06:49.5,2,3.66667,2
3080,06:49.8,2,3.66667,2
3081,06:50.0,2,3.66667,2
3082,06:50.2,2,3.66667,2
3083,06:50.5,2,3.66667,2
3084,06:50.7,2,3.66667,2
3085,06:51.0,2,3.66667,2
3086,06:51.3,2,3.66667,2
3087,06:51.5,2,3.66667,2
3088,06:51.7,2,3.66667,2
3089,06:52.0,2,3.66667,2
3090,06:52.2,2,3.66667,2
3091,06:52.5,2,3.66667,2
3092,06:52.7,2,3.66667,2
3093,06:53.0,2,3.66667,2
3094,06:53.2,2,3.66667,2
3095,06:53.5,2,3.66667,2
3096,06:53.7,2,3.66667,2
3097,06:54.0,2,3.66667,2
3098,06:54.2,2,3.66667,2
3099,06:54.5,2,3.66667,2
3100,06:54.7,2,3.66667,2
3101,06:55.0,2,3.66667,2
3102,06:55.3,2,3.66667,2
3103,06:55.5,2,3.66667,2
3104,06:55.7,2,3.66667,2
3105,06:56.0,2,3.66667,2
3106,06:56.2,2,3.66667,2
3107,06:56.5,2,3.66667,2
3108,06:56.7,2,3.66667,2
3109,06:57.0,2,3.66667,2
3110,06:57.2,2,3.66667,2
3111,06:57.5,2,3.66667,2
3112,06:57.7,2,3.66667,2
3113,06:58.0,2,3.66667,2
3114,06:58.2,2,3.66667,2
3115,06:58.5,2,3.66667,2
3116,06:58.7,2,3.66667,2
3117,06:59.0,2,3.66667,2
3118,06:59.2,2,3.66667,2
3119,06:59.5,2,3.66667,2
3120,06:59.7,2,3.66667,2
3121,07:00.0,2,3.66667,2
3122,07:00.2,2,3.66667,2
3123,07:00.5,2,3.66667,2
3124,07:00.7,2,3.66667,2
3125,07:01.0,2,3.66667,2
3126,07:01.2,2,3.66667,2
3127,07:01.5,2,3.66667,2
3128,07:01.7,2,3.66667,2
3129,07:02.0,2,3.66667,2
3130,07:02.2,2,3.66667,2
3131,07:02.5,2,3.66667,2
3132,07:02.7,2,3.66667,2
3133,07:03.0,2,3.66667,2
3134,07:03.2,2,3.66667,2
3135,07:03.5,2,3.66667,2
3136,07:03.7,2,3.66667,2
3137,07:04.0,2,3.66667,2
3138,07:04.2,2,3.66667,2
3139,07:04.5,2,3.66667,2
3140,07:04.7,2,3.66667,2
3141,07:05.0,2,3.66667,2
3142,07:05.2,2,3.66667,2
3143,07:05.5,2,3.66667,2
3144,07:05.7,2,3.66667,2
3145,07:06.0,2,3.66667,2
3146,07:06.2,2,3.66667,2
3147,07:06.5,2,3.66667,2
3148,07:06.7,2,3.66667,2
3149,07:07.0,2,3.66667,2
3150,07:07.2,2,3.66667,2
3151,07:07.5,2,3.66667,2
3152,07:07.7,2,3.66667,2
3153,07:08.0,2,3.66667,2
3154,07:08.2,2,3.66667,2
3155,07:08.5,2,3.66667,2
3156,07:08.7,2,3.66667,2
3157,07:09.0,2,3.66667,2
3158,07:09.2,2,3.66667,2
3159,07:09.5,2,3.66667,2
3160,07:09.7,2,3.66667,2
3161,07:10.0,2,3.66667,2
3162,07:10.2,2,3.66667,2
3163,07:10.5,2,3.66667,2
3164,07:10.7,2,3.66667,2
3165,07:11.0,2,3.66667,2
3166,07:11.2,2,3.66667,2
3167,07:11.5,2,3.66667,2
3168,07:11.8,2,3.66667,2
3169,07:12.0,2,3.66667,2
3170,07:12.2,2,3.66667,2
3171,07:12.5,2,3.66667,2
3172,07:12.7,2,3.66667,2
3173,07:13.0,2,3.66667,2
3174,07:13.2,2,3.66667,2
3175,07:13.5,2,3.66667,2
3176,07:13.7,2,3.66667,2
3177,07:14.0,2,3.66667,2
3178,07:14.2,2,3.66667,2
3179,07:14.5,2,3.66667,2
3180,07:14.7,2,3.66667,2
3181,07:15.0,2,3.66667,2
3182,07:15.3,2,3.66667,2
3183,07:15.5,2,3.66667,2
3184,07:15.7,2,3.66667,2
3185,07:16.0,2,3.66667,2
3186,07:16.2,2,3.66667,2
3187,07:16.5,2,3.66667,2
3188,07:16.7,2,3.66667,2
3189,07:17.0,2,3.66667,2
3190,07:17.2,2,3.66667,2
3191,07:17.5,2,3.66667,2
3192,08:03.0,2.28571,3.66667,5
3193,08:03.2,2.28571,3.66667,5
3194,08:03.5,2.28571,3.66667,5
3195,08:03.7,2.28571,3.66667,5
3196,08:04.0,2.28571,3.66667,5
3197,08:04.2,2.28571,3.66667,5
3198,08:04.5,2.28571,3.66667,5
3199,08:04.7,2.28571,3.66667,5
3200,08:05.0,2.28571,3.66667,5
3201,08:05.2,2.28571,3.66667,5
3202,08:05.5,2.28571,3.66667,5
3203,08:05.7,2.28571,3.66667,5
3204,08:06.0,2.28571,3.66667,5
3205,08:06.2,2.28571,3.66667,5
3206,08:06.5,2.28571,3.66667,5
3207,08:06.7,2.28571,3.66667,5
3208,08:07.0,2.28571,3.66667,5
3209,08:07.2,2.28571,3.66667,5
3210,08:07.5,2.28571,3.66667,5
3211,08:07.7,2.28571,3.66667,5
3212,08:08.0,2.28571,3.66667,5
3213,08:08.2,2.28571,3.66667,5
3214,08:08.5,2.28571,3.66667,5
3215,08:08.7,2.28571,3.66667,5
3216,08:09.0,2.28571,3.66667,5
3217,08:09.2,2.28571,3.66667,5
3218,08:09.5,2.28571,3.66667,5
3219,08:09.7,2.28571,3.66667,5
3220,08:10.0,2.28571,3.66667,5
3221,08:10.2,2.28571,3.66667,5
3222,08:10.5,2.28571,3.66667,5
3223,08:10.7,2.28571,3.66667,5
3224,08:11.0,2.28571,3.66667,5
3225,08:11.2,2.28571,3.66667,5
3226,08:11.5,2.28571,3.66667,5
3227,08:11.7,2.28571,3.66667,5
3228,08:12.0,2.28571,3.66667,5
3229,08:12.2,2.28571,3.66667,5
3230,08:12.5,2.28571,3.66667,5
3231,08:12.7,2.28571,3.66667,5
3232,08:13.0,2.28571,3.66667,5
3233,08:13.2,2.28571,3.66667,5
3234,08:13.5,2.28571,3.66667,5
3235,08:13.7,2.28571,3.66667,5
3236,08:14.0,2.28571,3.66667,5
3237,08:14.2,2.28571,3.66667,5
3238,08:14.5,2.28571,3.66667,5
3239,08:14.7,2.28571,3.66667,5
3240,08:15.0,2.28571,3.66667,5
3241,08:15.2,2.28571,3.66667,5
3242,08:15.5,2.28571,3.66667,5
3243,08:15.7,2.28571,3.66667,5
3244,08:16.0,2.28571,3.66667,5
3245,08:16.2,2.28571,3.66667,5
3246,08:16.5,2.28571,3.66667,5
3247,08:16.7,2.28571,3.66667,5
3248,08:16.9,2.28571,3.66667,5
3249,08:17.2,2.28571,3.66667,5
3250,08:17.4,2.28571,3.66667,5
3251,08:17.7,2.28571,3.66667,5
3252,08:18.0,2.28571,3.66667,5
3253,08:18.2,2.28571,3.66667,5
3254,08:18.5,2.28571,3.66667,5
3255,08:18.7,2.28571,3.66667,5
3256,08:19.0,2.28571,3.66667,5
3257,08:19.2,2.28571,3.66667,5
3258,08:19.5,2.28571,3.66667,5
3259,08:19.7,2.28571,3.66667,5
3260,08:20.0,2.28571,3.66667,5
3261,08:20.2,2.28571,3.66667,5
3262,08:20.5,2.28571,3.66667,5
3263,08:20.7,2.28571,3.66667,5
3264,08:21.0,2.28571,3.66667,5
3265,08:21.2,2.28571,3.66667,5
3266,08:21.4,2.28571,3.66667,5
3267,08:21.7,2.28571,3.66667,5
3268,08:21.9,2.28571,3.66667,5
3269,08:22.2,2.28571,3.66667,5
3270,08:22.4,2.28571,3.66667,5
3271,08:22.7,2.28571,3.66667,5
3272,08:23.0,2.28571,3.66667,5
3273,08:23.2,2.28571,3.66667,5
3274,08:23.5,2.28571,3.66667,5
3275,08:23.7,2.28571,3.66667,5
3276,08:23.9,2.28571,3.66667,5
3277,08:24.2,2.28571,3.66667,5
3278,08:24.5,2.28571,3.66667,5
3279,08:24.7,2.28571,3.66667,5
3280,08:24.9,2.28571,3.66667,5
3281,08:25.2,2.28571,3.66667,5
3282,08:25.4,2.28571,3.66667,5
3283,08:25.7,2.28571,3.66667,5
3284,08:25.9,2.28571,3.66667,5
3285,08:26.2,2.28571,3.66667,5
3286,08:26.4,2.28571,3.66667,5
3287,08:26.7,2.28571,3.66667,5
3288,08:26.9,2.28571,3.66667,5
3289,08:27.2,2.28571,3.66667,5
3290,08:27.4,2.28571,3.66667,5
3291,08:27.7,2.28571,3.66667,5
3292,08:28.0,2.28571,3.66667,5
3293,08:28.2,2.28571,3.66667,5
3294,08:28.4,2.28571,3.66667,5
3295,08:28.7,2.28571,3.66667,5
3296,08:28.9,2.28571,3.66667,5
3297,08:29.2,2.28571,3.66667,5
3298,08:29.4,2.28571,3.66667,5
3299,08:29.7,2.28571,3.66667,5
3300,08:29.9,2.28571,3.66667,5
3301,08:30.2,2.28571,3.66667,5
3302,08:30.4,2.28571,3.66667,5
3303,08:30.7,2.28571,3.66667,5
3304,08:30.9,2.28571,3.66667,5
3305,08:31.2,2.28571,3.66667,5
3306,08:31.4,2.28571,3.66667,5
3307,08:31.7,2.28571,3.66667,5
3308,08:31.9,2.28571,3.66667,5
3309,08:32.2,2.28571,3.66667,5
3310,08:32.4,2.28571,3.66667,5
3311,08:32.7,2.28571,3.66667,5
3312,08:32.9,2.28571,3.66667,5
3313,08:33.2,2.28571,3.66667,5
3314,08:33.4,2.28571,3.66667,5
3315,08:33.7,2.28571,3.66667,5
3316,08:33.9,2.28571,3.66667,5
3317,08:34.2,2.28571,3.66667,5
3318,08:34.4,2.28571,3.66667,5
3319,08:34.7,2.28571,3.66667,5
3320,08:34.9,2.28571,3.66667,5
3321,08:35.2,2.28571,3.66667,5
3322,08:35.4,2.28571,3.66667,5
3323,08:35.7,2.28571,3.66667,5
3324,08:35.9,2.28571,3.66667,5
3325,08:36.2,2.28571,3.66667,5
3326,08:36.4,2.28571,3.66667,5
3327,08:36.7,2.28571,3.66667,5
3328,08:36.9,2.28571,3.66667,5
3329,08:37.2,2.28571,3.66667,5
3330,08:37.4,2.28571,3.66667,5
3331,08:37.7,2.28571,3.66667,5
3332,08:37.9,2.28571,3.66667,5
3333,08:38.2,2.28571,3.66667,5
3334,08:38.4,2.28571,3.66667,5
3335,08:38.7,2.28571,3.66667,5
3336,08:38.9,2.28571,3.66667,5
3337,08:39.2,2.28571,3.66667,5
3338,08:39.4,2.28571,3.66667,5
3339,08:39.7,2.28571,3.66667,5
3340,08:39.9,2.28571,3.66667,5
3341,08:40.2,2.28571,3.66667,5
3342,08:40.4,2.28571,3.66667,5
3343,08:40.7,2.28571,3.66667,5
3344,08:40.9,2.28571,3.66667,5
3345,08:41.2,2.28571,3.66667,5
3346,08:41.4,2.28571,3.66667,5
3347,08:41.7,2.28571,3.66667,5
3348,08:41.9,2.28571,3.66667,5
3349,08:42.2,2.28571,3.66667,5
3350,08:42.4,2.28571,3.66667,5
3351,08:42.7,2.28571,3.66667,5
3352,08:42.9,2.28571,3.66667,5
3353,08:43.2,2.28571,3.66667,5
3354,08:43.4,2.28571,3.66667,5
3355,08:43.7,2.28571,3.66667,5
3356,08:43.9,2.28571,3.66667,5
3357,08:44.2,2.28571,3.66667,5
3358,08:44.4,2.28571,3.66667,5
3359,08:44.7,2.28571,3.66667,5
3360,08:44.9,2.28571,3.66667,5
3361,08:45.2,2.28571,3.66667,5
3362,08:45.4,2.28571,3.66667,5
3363,08:45.7,2.28571,3.66667,5
3364,08:45.9,2.28571,3.66667,5
3365,08:46.2,2.28571,3.66667,5
3366,08:46.4,2.28571,3.66667,5
3367,08:46.7,2.28571,3.66667,5
3368,08:46.9,2.28571,3.66667,5
3369,08:47.2,2.28571,3.66667,5
3370,08:47.4,2.28571,3.66667,5
3371,08:47.7,2.28571,3.66667,5
3372,08:47.9,2.28571,3.66667,5
3373,08:48.2,2.28571,3.66667,5
3374,08:48.4,2.28571,3.66667,5
3375,08:48.7,2.28571,3.66667,5
3376,08:48.9,2.28571,3.66667,5
3377,08:49.2,2.28571,3.66667,5
3378,08:49.4,2.28571,3.66667,5
3379,08:49.7,2.28571,3.66667,5
3380,08:49.9,2.28571,3.66667,5
3381,08:50.2,2.28571,3.66667,5
3382,08:50.4,2.28571,3.66667,5
3383,08:50.7,2.28571,3.66667,5
3384,08:50.9,2.28571,3.66667,5
3385,08:51.2,2.28571,3.66667,5
3386,08:51.4,2.28571,3.66667,5
3387,08:51.7,2.28571,3.66667,5
3388,08:51.9,2.28571,3.66667,5
3389,08:52.2,2.28571,3.66667,5
3390,08:52.4,2.28571,3.66667,5
3391,08:52.7,2.28571,3.66667,5
3392,08:52.9,2.28571,3.66667,5
3393,08:53.2,2.28571,3.66667,5
3394,08:53.4,2.28571,3.66667,5
3395,08:53.7,2.28571,3.66667,5
3396,08:53.9,2.28571,3.66667,5
3397,08:54.2,2.28571,3.66667,5
3398,08:54.5,2.28571,3.66667,5
3399,08:54.7,2.28571,3.66667,5
3400,08:54.9,2.28571,3.66667,5
3401,08:55.2,2.28571,3.66667,5
3402,08:55.4,2.28571,3.66667,5
3403,08:55.7,2.28571,3.66667,5
3404,08:55.9,2.28571,3.66667,5
3405,08:56.2,2.28571,3.66667,5
3406,08:56.4,2.28571,3.66667,5
3407,08:56.7,2.28571,3.66667,5
3408,08:56.9,2.28571,3.66667,5
3409,08:57.2,2.28571,3.66667,5
3410,08:57.4,2.28571,3.66667,5
3411,08:57.7,2.28571,3.66667,5
3412,08:57.9,2.28571,3.66667,5
3413,08:58.2,2.28571,3.66667,5
3414,08:58.5,2.28571,3.66667,5
3415,08:58.7,2.28571,3.66667,5
3416,08:58.9,2.28571,3.66667,5
3417,08:59.2,2.28571,3.66667,5
3418,08:59.4,2.28571,3.66667,5
3419,08:59.7,2.28571,3.66667,5
3420,08:59.9,2.28571,3.66667,5
3421,09:00.2,2.28571,3.66667,5
3422,09:00.4,2.28571,3.66667,5
3423,09:00.7,2.28571,3.66667,5
3424,09:00.9,2.28571,3.66667,5
3425,09:01.2,2.28571,3.66667,5
3426,09:01.4,2.28571,3.66667,5
3427,09:01.7,2.28571,3.66667,5
3428,09:01.9,2.28571,3.66667,5
3429,09:02.2,2.28571,3.66667,5
3430,09:02.4,2.28571,3.66667,5
3431,09:02.7,2.28571,3.66667,5
3432,09:02.9,2.28571,3.66667,5
3433,09:03.2,2.28571,3.66667,5
3434,09:03.4,2.28571,3.66667,5
3435,09:03.7,2.28571,3.66667,5
3436,09:03.9,2.28571,3.66667,5
3437,09:04.2,2.28571,3.66667,5
3438,09:04.4,2.28571,3.66667,5
3439,09:04.7,2.28571,3.66667,5
3440,09:04.9,2.28571,3.66667,5
3441,09:05.2,2.28571,3.66667,5
3442,09:05.4,2.28571,3.66667,5
3443,09:05.7,2.28571,3.66667,5
3444,09:05.9,2.28571,3.66667,5
3445,09:06.2,2.28571,3.66667,5
3446,09:06.4,2.28571,3.66667,5
3447,09:06.7,2.28571,3.66667,5
3448,09:06.9,2.28571,3.66667,5
3449,09:07.2,2.28571,3.66667,5
3450,09:07.4,2.28571,3.66667,5
3451,09:07.7,2.28571,3.66667,5
3452,09:07.9,2.28571,3.66667,5
3453,09:08.2,2.28571,3.66667,5
3454,09:08.4,2.28571,3.66667,5
3455,09:08.7,2.28571,3.66667,5
3456,09:08.9,2.28571,3.66667,5
3457,09:09.2,2.28571,3.66667,5
3458,09:09.4,2.28571,3.66667,5
3459,09:09.7,2.28571,3.66667,5
3460,09:09.9,2.28571,3.66667,5
3461,09:10.2,2.28571,3.66667,5
3462,09:10.4,2.28571,3.66667,5
3463,09:10.7,2.28571,3.66667,5
3464,09:10.9,2.28571,3.66667,5
3465,09:11.2,2.28571,3.66667,5
3466,09:11.4,2.28571,3.66667,5
3467,09:11.7,2.28571,3.66667,5
3468,09:11.9,2.28571,3.66667,5
3469,09:12.2,2.28571,3.66667,5
3470,09:12.4,2.28571,3.66667,5
3471,09:12.7,2.28571,3.66667,5
3472,09:12.9,2.28571,3.66667,5
3473,09:13.2,2.28571,3.66667,5
3474,09:13.4,2.28571,3.66667,5
3475,09:13.7,2.28571,3.66667,5
3476,09:13.9,2.28571,3.66667,5
3477,09:14.2,2.28571,3.66667,5
3478,09:14.4,2.28571,3.66667,5
3479,09:14.7,2.28571,3.66667,5
3480,09:14.9,2.28571,3.66667,5
3481,09:15.2,2.28571,3.66667,5
3482,09:15.4,2.28571,3.66667,5
3483,09:15.7,2.28571,3.66667,5
3484,09:15.9,2.28571,3.66667,5
3485,09:16.2,2.28571,3.66667,5
3486,09:16.4,2.28571,3.66667,5
3487,09:16.7,2.28571,3.66667,5
3488,09:16.9,2.28571,3.66667,5
3489,09:17.2,2.28571,3.66667,5
3490,09:17.4,2.28571,3.66667,5
3491,09:17.7,2.28571,3.66667,5
3492,09:17.9,2.28571,3.66667,5
3493,09:18.2,2.28571,3.66667,5
3494,09:18.4,2.28571,3.66667,5
3495,09:18.7,2.28571,3.66667,5
3496,09:18.9,2.28571,3.66667,5
3497,09:19.2,2.28571,3.66667,5
3498,09:19.4,2.28571,3.66667,5
3499,09:19.7,2.28571,3.66667,5
3500,09:19.9,2.28571,3.66667,5
3501,09:20.2,2.28571,3.66667,5
3502,09:20.4,2.28571,3.66667,5
3503,09:20.7,2.28571,3.66667,5
3504,09:20.9,2.28571,3.66667,5
3505,09:21.2,2.28571,3.66667,5
3506,09:21.4,2.28571,3.66667,5
3507,09:21.7,2.28571,3.66667,5
3508,09:21.9,2.28571,3.66667,5
3509,09:22.2,2.28571,3.66667,5
3510,09:22.4,2.28571,3.66667,5
3511,09:22.7,2.28571,3.66667,5
3512,09:22.9,2.28571,3.66667,5
3513,09:23.2,2.28571,3.66667,5
3514,09:23.4,2.28571,3.66667,5
3515,09:23.7,2.28571,3.66667,5
3516,09:23.9,2.28571,3.66667,5
3517,09:24.2,2.28571,3.66667,5
3518,09:24.4,2.28571,3.66667,5
3519,09:24.7,2.28571,3.66667,5
3520,09:24.9,2.28571,3.66667,5
3521,09:25.2,2.28571,3.66667,5
3522,09:25.4,2.28571,3.66667,5
3523,09:25.7,2.28571,3.66667,5
3524,09:25.9,2.28571,3.66667,5
3525,09:26.2,2.28571,3.66667,5
3526,09:26.4,2.28571,3.66667,5
3527,09:26.6,2.28571,3.66667,5
3528,09:26.9,2.28571,3.66667,5
3529,09:27.2,2.28571,3.66667,5
3530,09:27.4,2.28571,3.66667,5
3531,09:27.7,2.28571,3.66667,5
3532,09:27.9,2.28571,3.66667,5
3533,09:28.2,2.28571,3.66667,5
3534,09:28.4,2.28571,3.66667,5
3535,09:28.7,2.28571,3.66667,5
3536,09:28.9,2.28571,3.66667,5
3537,09:29.2,2.28571,3.66667,5
3538,09:29.4,2.28571,3.66667,5
3539,09:29.7,2.28571,3.66667,5
3540,09:29.9,2.28571,3.66667,5
3541,09:30.2,2.28571,3.66667,5
3542,09:30.4,2.28571,3.66667,5
3543,09:30.7,2.28571,3.66667,5
3544,09:30.9,2.28571,3.66667,5
3545,09:31.2,2.28571,3.66667,5
3546,09:31.4,2.28571,3.66667,5
3547,09:31.7,2.28571,3.66667,5
3548,09:31.9,2.28571,3.66667,5
3549,09:32.2,2.28571,3.66667,5
3550,09:32.4,2.28571,3.66667,5
3551,09:32.6,2.28571,3.66667,5
3552,09:32.9,2.28571,3.66667,5
3553,09:33.1,2.28571,3.66667,5
3554,09:33.4,2.28571,3.66667,5
3555,09:33.6,2.28571,3.66667,5
3556,09:33.9,2.28571,3.66667,5
3557,09:34.1,2.28571,3.66667,5
3558,09:34.4,2.28571,3.66667,5
3559,09:34.6,2.28571,3.66667,5
3560,09:34.9,2.28571,3.66667,5
3561,09:35.2,2.28571,3.66667,5
3562,09:35.4,2.28571,3.66667,5
3563,09:35.6,2.28571,3.66667,5
3564,09:35.9,2.28571,3.66667,5
3565,09:36.1,2.28571,3.66667,5
3566,09:36.4,2.28571,3.66667,5
3567,09:36.6,2.28571,3.66667,5
3568,09:36.9,2.28571,3.66667,5
3569,09:37.1,2.28571,3.66667,5
3570,09:37.4,2.28571,3.66667,5
3571,09:37.7,2.28571,3.66667,5
3572,09:37.9,2.28571,3.66667,5
3573,09:38.1,2.28571,3.66667,5
3574,09:38.4,2.28571,3.66667,5
3575,09:38.6,2.28571,3.66667,5
3576,09:38.9,2.28571,3.66667,5
3577,09:39.1,2.28571,3.66667,5
3578,09:39.4,2.28571,3.66667,5
3579,09:39.6,2.28571,3.66667,5
3580,09:39.9,2.28571,3.66667,5
3581,09:40.1,2.28571,3.66667,5
3582,09:40.4,2.28571,3.66667,5
3583,09:40.6,2.28571,3.66667,5
3584,09:40.9,2.28571,3.66667,5
3585,09:41.1,2.28571,3.66667,5
3586,09:41.4,2.28571,3.66667,5
3587,09:41.6,2.28571,3.66667,5
3588,09:41.9,2.28571,3.66667,5
3589,09:42.1,2.28571,3.66667,5
3590,09:42.4,2.28571,3.66667,5
3591,09:42.6,2.28571,3.66667,5
3592,09:42.9,2.28571,3.66667,5
3593,09:43.1,2.28571,3.66667,5
3594,09:43.4,2.28571,3.66667,5
3595,09:43.6,2.28571,3.66667,5
3596,09:43.9,2.28571,3.66667,5
3597,09:44.1,2.28571,3.66667,5
3598,09:44.4,2.28571,3.66667,5
3599,09:44.6,2.28571,3.66667,5
3600,09:44.9,2.28571,3.66667,5
3601,09:45.1,2.28571,3.66667,5
3602,09:45.4,2.28571,3.66667,5
3603,09:45.6,2.28571,3.66667,5
3604,09:45.9,2.28571,3.66667,5
3605,09:46.1,2.28571,3.66667,5
3606,09:46.4,2.28571,3.66667,5
3607,09:46.6,2.28571,3.66667,5
3608,09:46.9,2.28571,3.66667,5
3609,09:47.1,2.28571,3.66667,5
3610,09:47.4,2.28571,3.66667,5
3611,09:47.6,2.28571,3.66667,5
3612,09:47.9,2.28571,3.66667,5
3613,09:48.1,2.28571,3.66667,5
3614,09:48.4,2.28571,3.66667,5
3615,09:48.6,2.28571,3.66667,5
3616,09:48.9,2.28571,3.66667,5
3617,09:49.1,2.28571,3.66667,5
3618,09:49.4,2.28571,3.66667,5
3619,09:49.6,2.28571,3.66667,5
3620,09:49.9,2.28571,3.66667,5
3621,09:50.1,2.28571,3.66667,5
3622,09:50.4,2.28571,3.66667,5
3623,09:50.6,2.28571,3.66667,5
3624,09:50.9,2.28571,3.66667,5
3625,09:51.1,2.28571,3.66667,5
3626,09:51.4,2.28571,3.66667,5
3627,09:51.6,2.28571,3.66667,5
3628,09:51.9,2.28571,3.66667,5
3629,09:52.1,2.28571,3.66667,5
3630,09:52.4,2.28571,3.66667,5
3631,09:52.6,2.28571,3.66667,5
3632,09:52.9,2.28571,3.66667,5
3633,09:53.1,2.28571,3.66667,5
3634,09:53.4,2.28571,3.66667,5
3635,09:53.6,2.28571,3.66667,5
3636,09:53.9,2.28571,3.66667,5
3637,09:54.1,2.28571,3.66667,5
3638,09:54.4,2.28571,3.66667,5
3639,09:54.6,2.28571,3.66667,5
3640,09:54.9,2.28571,3.66667,5
3641,09:55.1,2.28571,3.66667,5
3642,09:55.4,2.28571,3.66667,5
3643,09:55.6,2.28571,3.66667,5
3644,09:55.9,2.28571,3.66667,5
3645,09:56.1,2.28571,3.66667,5
3646,09:56.4,2.28571,3.66667,5
3647,09:56.6,2.28571,3.66667,5
3648,09:56.9,2.28571,3.66667,5
3649,09:57.1,2.28571,3.66667,5
3650,09:57.4,2.28571,3.66667,5
3651,09:57.7,2.28571,3.66667,5
3652,09:57.9,2.28571,3.66667,5
3653,09:58.1,2.28571,3.66667,5
3654,09:58.4,2.28571,3.66667,5
3655,09:58.6,2.28571,3.66667,5
3656,09:58.9,2.28571,3.66667,5
3657,09:59.1,2.28571,3.66667,5
3658,09:59.4,2.28571,3.66667,5
3659,09:59.6,2.28571,3.66667,5
3660,09:59.9,2.28571,3.66667,5
3661,10:00.1,2.28571,3.66667,5
3662,10:00.4,2.28571,3.66667,5
3663,10:00.6,2.28571,3.66667,5
3664,10:00.9,2.28571,3.66667,5
3665,10:01.1,2.28571,3.66667,5
3666,10:01.4,2.28571,3.66667,5
3667,10:01.6,2.28571,3.66667,5
3668,10:01.9,2.28571,3.66667,5
3669,10:02.1,2.28571,3.66667,5
3670,10:02.4,2.28571,3.66667,5
3671,10:02.6,2.28571,3.66667,5
3672,10:02.9,2.28571,3.66667,5
3673,10:03.1,2.28571,3.66667,5
3674,10:03.4,2.28571,3.66667,5
3675,10:03.6,2.28571,3.66667,5
3676,10:03.9,2.28571,3.66667,5
3677,10:04.1,2.28571,3.66667,5
3678,10:04.4,2.28571,3.66667,5
3679,10:04.6,2.28571,3.66667,5
3680,10:04.9,2.28571,3.66667,5
3681,10:05.1,2.28571,3.66667,5
3682,10:05.4,2.28571,3.66667,5
3683,10:05.6,2.28571,3.66667,5
3684,10:05.9,2.28571,3.66667,5
3685,10:06.1,2.28571,3.66667,5
3686,10:06.4,2.28571,3.66667,5
3687,10:06.6,2.28571,3.66667,5
3688,10:06.9,2.28571,3.66667,5
3689,10:07.1,2.28571,3.66667,5
3690,10:07.4,2.28571,3.66667,5
3691,10:07.6,2.28571,3.66667,5
3692,10:07.9,2.28571,3.66667,5
3693,10:08.1,2.28571,3.66667,5
3694,10:08.4,2.28571,3.66667,5
3695,10:08.6,2.28571,3.66667,5
3696,10:08.9,2.28571,3.66667,5
3697,10:09.1,2.28571,3.66667,5
3698,10:09.4,2.28571,3.66667,5
3699,10:09.6,2.28571,3.66667,5
3700,10:09.9,2.28571,3.66667,5
3701,10:10.1,2.28571,3.66667,5
3702,10:10.4,2.28571,3.66667,5
3703,10:10.6,2.28571,3.66667,5
3704,10:10.9,2.28571,3.66667,5
3705,10:11.1,2.28571,3.66667,5
3706,10:11.4,2.28571,3.66667,5
3707,10:11.6,2.28571,3.66667,5
3708,10:11.9,2.28571,3.66667,5
3709,10:12.1,2.28571,3.66667,5
3710,10:12.4,2.28571,3.66667,5
3711,10:12.6,2.28571,3.66667,5
3712,10:12.9,2.28571,3.66667,5
3713,10:13.1,2.28571,3.66667,5
3714,10:13.4,2.28571,3.66667,5
3715,10:13.6,2.28571,3.66667,5
3716,10:13.9,2.28571,3.66667,5
3717,10:14.1,2.28571,3.66667,5
3718,10:14.4,2.28571,3.66667,5
3719,10:14.6,2.28571,3.66667,5
3720,10:14.9,2.28571,3.66667,5
3721,10:15.1,2.28571,3.66667,5
3722,10:15.4,2.28571,3.66667,5
3723,10:15.6,2.28571,3.66667,5
3724,10:15.9,2.28571,3.66667,5
3725,10:16.1,2.28571,3.66667,5
3726,10:16.4,2.28571,3.66667,5
3727,10:16.6,2.28571,3.66667,5
3728,10:16.9,2.28571,3.66667,5
3729,10:17.1,2.28571,3.66667,5
3730,10:17.4,2.28571,3.66667,5
3731,10:17.6,2.28571,3.66667,5
3732,10:17.9,2.28571,3.66667,5
3733,10:18.1,2.28571,3.66667,5
3734,10:18.4,2.28571,3.66667,5
3735,10:18.6,2.28571,3.66667,5
3736,11:02.4,1.71429,3.66667,2
3737,11:02.7,1.71429,3.66667,2
3738,11:02.9,1.71429,3.66667,2
3739,11:03.2,1.71429,3.66667,2
3740,11:03.4,1.71429,3.66667,2
3741,11:03.7,1.71429,3.66667,2
3742,11:03.9,1.71429,3.66667,2
3743,11:04.2,1.71429,3.66667,2
3744,11:04.4,1.71429,3.66667,2
3745,11:04.7,1.71429,3.66667,2
3746,11:04.9,1.71429,3.66667,2
3747,11:05.2,1.71429,3.66667,2
3748,11:05.4,1.71429,3.66667,2
3749,11:05.7,1.71429,3.66667,2
3750,11:05.9,1.71429,3.66667,2
3751,11:06.2,1.71429,3.66667,2
3752,11:06.4,1.71429,3.66667,2
3753,11:06.7,1.71429,3.66667,2
3754,11:06.9,1.71429,3.66667,2
3755,11:07.2,1.71429,3.66667,2
3756,11:07.4,1.71429,3.66667,2
3757,11:07.7,1.71429,3.66667,2
3758,11:07.9,1.71429,3.66667,2
3759,11:08.2,1.71429,3.66667,2
3760,11:08.4,1.71429,3.66667,2
3761,11:08.7,1.71429,3.66667,2
3762,11:08.9,1.71429,3.66667,2
3763,11:09.2,1.71429,3.66667,2
3764,11:09.4,1.71429,3.66667,2
3765,11:09.7,1.71429,3.66667,2
3766,11:09.9,1.71429,3.66667,2
3767,11:10.2,1.71429,3.66667,2
3768,11:10.4,1.71429,3.66667,2
3769,11:10.7,1.71429,3.66667,2
3770,11:10.9,1.71429,3.66667,2
3771,11:11.2,1.71429,3.66667,2
3772,11:11.4,1.71429,3.66667,2
3773,11:11.7,1.71429,3.66667,2
3774,11:11.9,1.71429,3.66667,2
3775,11:12.2,1.71429,3.66667,2
3776,11:12.4,1.71429,3.66667,2
3777,11:12.7,1.71429,3.66667,2
3778,11:12.9,1.71429,3.66667,2
3779,11:13.2,1.71429,3.66667,2
3780,11:13.4,1.71429,3.66667,2
3781,11:13.7,1.71429,3.66667,2
3782,11:13.9,1.71429,3.66667,2
3783,11:14.2,1.71429,3.66667,2
3784,11:14.4,1.71429,3.66667,2
3785,11:14.7,1.71429,3.66667,2
3786,11:14.9,1.71429,3.66667,2
3787,11:15.2,1.71429,3.66667,2
3788,11:15.4,1.71429,3.66667,2
3789,11:15.7,1.71429,3.66667,2
3790,11:15.9,1.71429,3.66667,2
3791,11:16.2,1.71429,3.66667,2
3792,11:16.4,1.71429,3.66667,2
3793,11:16.7,1.71429,3.66667,2
3794,11:16.9,1.71429,3.66667,2
3795,11:17.2,1.71429,3.66667,2
3796,11:17.4,1.71429,3.66667,2
3797,11:17.7,1.71429,3.66667,2
3798,11:17.9,1.71429,3.66667,2
3799,11:18.2,1.71429,3.66667,2
3800,11:18.4,1.71429,3.66667,2
3801,11:18.7,1.71429,3.66667,2
3802,11:18.9,1.71429,3.66667,2
3803,11:19.2,1.71429,3.66667,2
3804,11:19.4,1.71429,3.66667,2
3805,11:19.7,1.71429,3.66667,2
3806,11:19.9,1.71429,3.66667,2
3807,11:20.2,1.71429,3.66667,2
3808,11:20.4,1.71429,3.66667,2
3809,11:20.7,1.71429,3.66667,2
3810,11:20.9,1.71429,3.66667,2
3811,11:21.2,1.71429,3.66667,2
3812,11:21.4,1.71429,3.66667,2
3813,11:21.7,1.71429,3.66667,2
3814,11:21.9,1.71429,3.66667,2
3815,11:22.2,1.71429,3.66667,2
3816,11:22.4,1.71429,3.66667,2
3817,11:22.7,1.71429,3.66667,2
3818,11:22.9,1.71429,3.66667,2
3819,11:23.2,1.71429,3.66667,2
3820,11:23.4,1.71429,3.66667,2
3821,11:23.7,1.71429,3.66667,2
3822,11:23.9,1.71429,3.66667,2
3823,11:24.2,1.71429,3.66667,2
3824,11:24.4,1.71429,3.66667,2
3825,11:24.7,1.71429,3.66667,2
3826,11:24.9,1.71429,3.66667,2
3827,11:25.2,1.71429,3.66667,2
3828,11:25.4,1.71429,3.66667,2
3829,11:25.7,1.71429,3.66667,2
3830,11:25.9,1.71429,3.66667,2
3831,11:26.1,1.71429,3.66667,2
3832,11:26.4,1.71429,3.66667,2
3833,11:26.7,1.71429,3.66667,2
3834,11:26.9,1.71429,3.66667,2
3835,11:27.2,1.71429,3.66667,2
3836,11:27.4,1.71429,3.66667,2
3837,11:27.7,1.71429,3.66667,2
3838,11:27.9,1.71429,3.66667,2
3839,11:28.2,1.71429,3.66667,2
3840,11:28.4,1.71429,3.66667,2
3841,11:28.7,1.71429,3.66667,2
3842,11:28.9,1.71429,3.66667,2
3843,11:29.2,1.71429,3.66667,2
3844,11:29.4,1.71429,3.66667,2
3845,11:29.7,1.71429,3.66667,2
3846,11:29.9,1.71429,3.66667,2
3847,11:30.2,1.71429,3.66667,2
3848,11:30.4,1.71429,3.66667,2
3849,11:30.7,1.71429,3.66667,2
3850,11:30.9,1.71429,3.66667,2
3851,11:31.1,1.71429,3.66667,2
3852,11:31.4,1.71429,3.66667,2
3853,11:31.6,1.71429,3.66667,2
3854,11:31.9,1.71429,3.66667,2
3855,11:32.2,1.71429,3.66667,2
3856,11:32.4,1.71429,3.66667,2
3857,11:32.6,1.71429,3.66667,2
3858,11:32.9,1.71429,3.66667,2
3859,11:33.1,1.71429,3.66667,2
3860,11:33.4,1.71429,3.66667,2
3861,11:33.6,1.71429,3.66667,2
3862,11:33.9,1.71429,3.66667,2
3863,11:34.1,1.71429,3.66667,2
3864,11:34.4,1.71429,3.66667,2
3865,11:34.6,1.71429,3.66667,2
3866,11:34.9,1.71429,3.66667,2
3867,11:35.1,1.71429,3.66667,2
3868,11:35.4,1.71429,3.66667,2
3869,11:35.7,1.71429,3.66667,2
3870,11:35.9,1.71429,3.66667,2
3871,11:36.1,1.71429,3.66667,2
3872,11:36.4,1.71429,3.66667,2
3873,11:36.6,1.71429,3.66667,2
3874,11:36.9,1.71429,3.66667,2
3875,11:37.1,1.71429,3.66667,2
3876,11:37.4,1.71429,3.66667,2
3877,11:37.6,1.71429,3.66667,2
3878,11:37.9,1.71429,3.66667,2
3879,11:38.1,1.71429,3.66667,2
3880,11:38.4,1.71429,3.66667,2
3881,11:38.7,1.71429,3.66667,2
3882,11:38.9,1.71429,3.66667,2
3883,11:39.1,1.71429,3.66667,2
3884,11:39.4,1.71429,3.66667,2
3885,11:39.6,1.71429,3.66667,2
3886,11:39.9,1.71429,3.66667,2
3887,11:40.1,1.71429,3.66667,2
3888,11:40.4,1.71429,3.66667,2
3889,11:40.6,1.71429,3.66667,2
3890,11:40.9,1.71429,3.66667,2
3891,11:41.2,1.71429,3.66667,2
3892,11:41.4,1.71429,3.66667,2
3893,11:41.6,1.71429,3.66667,2
3894,11:41.9,1.71429,3.66667,2
3895,11:42.1,1.71429,3.66667,2
3896,11:42.4,1.71429,3.66667,2
3897,11:42.6,1.71429,3.66667,2
3898,11:42.9,1.71429,3.66667,2
3899,11:43.1,1.71429,3.66667,2
3900,11:43.4,1.71429,3.66667,2
3901,11:43.6,1.71429,3.66667,2
3902,11:43.9,1.71429,3.66667,2
3903,11:44.1,1.71429,3.66667,2
3904,11:44.4,1.71429,3.66667,2
3905,11:44.6,1.71429,3.66667,2
3906,11:44.9,1.71429,3.66667,2
3907,11:45.2,1.71429,3.66667,2
3908,11:45.4,1.71429,3.66667,2
3909,11:45.6,1.71429,3.66667,2
3910,11:45.9,1.71429,3.66667,2
3911,11:46.1,1.71429,3.66667,2
3912,11:46.4,1.71429,3.66667,2
3913,11:46.7,1.71429,3.66667,2
3914,11:46.9,1.71429,3.66667,2
3915,11:47.1,1.71429,3.66667,2
3916,11:47.4,1.71429,3.66667,2
3917,11:47.6,1.71429,3.66667,2
3918,11:47.9,1.71429,3.66667,2
3919,11:48.1,1.71429,3.66667,2
3920,11:48.4,1.71429,3.66667,2
3921,11:48.6,1.71429,3.66667,2
3922,11:48.9,1.71429,3.66667,2
3923,11:49.1,1.71429,3.66667,2
3924,11:49.4,1.71429,3.66667,2
3925,11:49.6,1.71429,3.66667,2
3926,11:49.9,1.71429,3.66667,2
3927,11:50.1,1.71429,3.66667,2
3928,11:50.4,1.71429,3.66667,2
3929,11:50.6,1.71429,3.66667,2
3930,11:50.9,1.71429,3.66667,2
3931,11:51.1,1.71429,3.66667,2
3932,11:51.4,1.71429,3.66667,2
3933,11:51.6,1.71429,3.66667,2
3934,11:51.9,1.71429,3.66667,2
3935,11:52.1,1.71429,3.66667,2
3936,11:52.4,1.71429,3.66667,2
3937,11:52.6,1.71429,3.66667,2
3938,11:52.9,1.71429,3.66667,2
3939,11:53.1,1.71429,3.66667,2
3940,11:53.4,1.71429,3.66667,2
3941,11:53.6,1.71429,3.66667,2
3942,11:53.9,1.71429,3.66667,2
3943,11:54.1,1.71429,3.66667,2
3944,11:54.4,1.71429,3.66667,2
3945,11:54.6,1.71429,3.66667,2
3946,11:54.9,1.71429,3.66667,2
3947,11:55.1,1.71429,3.66667,2
3948,11:55.4,1.71429,3.66667,2
3949,11:55.6,1.71429,3.66667,2
3950,11:55.9,1.71429,3.66667,2
3951,11:56.1,1.71429,3.66667,2
3952,11:56.4,1.71429,3.66667,2
3953,11:56.6,1.71429,3.66667,2
3954,11:56.9,1.71429,3.66667,2
3955,11:57.1,1.71429,3.66667,2
3956,11:57.4,1.71429,3.66667,2
3957,11:57.6,1.71429,3.66667,2
3958,11:57.9,1.71429,3.66667,2
3959,11:58.2,1.71429,3.66667,2
3960,11:58.4,1.71429,3.66667,2
3961,11:58.6,1.71429,3.66667,2
3962,11:58.9,1.71429,3.66667,2
3963,11:59.2,1.71429,3.66667,2
3964,11:59.4,1.71429,3.66667,2
3965,11:59.6,1.71429,3.66667,2
3966,11:59.9,1.71429,3.66667,2
3967,12:00.1,1.71429,3.66667,2
3968,12:00.4,1.71429,3.66667,2
3969,12:00.6,1.71429,3.66667,2
3970,12:00.9,1.71429,3.66667,2
3971,12:01.1,1.71429,3.66667,2
3972,12:01.4,1.71429,3.66667,2
3973,12:01.6,1.71429,3.66667,2
3974,12:01.9,1.71429,3.66667,2
3975,12:02.1,1.71429,3.66667,2
3976,12:02.4,1.71429,3.66667,2
3977,12:02.6,1.71429,3.66667,2
3978,12:02.9,1.71429,3.66667,2
3979,12:03.1,1.71429,3.66667,2
3980,12:03.4,1.71429,3.66667,2
3981,12:03.6,1.71429,3.66667,2
3982,12:03.9,1.71429,3.66667,2
3983,12:04.2,1.71429,3.66667,2
3984,12:04.4,1.71429,3.66667,2
3985,12:04.6,1.71429,3.66667,2
3986,12:04.9,1.71429,3.66667,2
3987,12:05.1,1.71429,3.66667,2
3988,12:05.4,1.71429,3.66667,2
3989,12:05.6,1.71429,3.66667,2
3990,12:05.9,1.71429,3.66667,2
3991,12:06.1,1.71429,3.66667,2
3992,12:06.4,1.71429,3.66667,2
3993,12:06.6,1.71429,3.66667,2
3994,12:06.9,1.71429,3.66667,2
3995,12:07.1,1.71429,3.66667,2
3996,12:07.4,1.71429,3.66667,2
3997,12:07.6,1.71429,3.66667,2
3998,12:07.9,1.71429,3.66667,2
3999,12:08.1,1.71429,3.66667,2
4000,12:08.4,1.71429,3.66667,2
4001,12:08.6,1.71429,3.66667,2
4002,12:08.9,1.71429,3.66667,2
4003,12:09.1,1.71429,3.66667,2
4004,12:09.4,1.71429,3.66667,2
4005,12:09.6,1.71429,3.66667,2
4006,12:09.9,1.71429,3.66667,2
4007,12:10.1,1.71429,3.66667,2
4008,12:10.4,1.71429,3.66667,2
4009,12:10.6,1.71429,3.66667,2
4010,12:10.9,1.71429,3.66667,2
4011,12:11.1,1.71429,3.66667,2
4012,12:11.4,1.71429,3.66667,2
4013,12:11.6,1.71429,3.66667,2
4014,12:11.9,1.71429,3.66667,2
4015,12:12.1,1.71429,3.66667,2
4016,12:12.4,1.71429,3.66667,2
4017,12:12.6,1.71429,3.66667,2
4018,12:12.9,1.71429,3.66667,2
4019,12:13.1,1.71429,3.66667,2
4020,12:13.4,1.71429,3.66667,2
4021,12:13.6,1.71429,3.66667,2
4022,12:13.9,1.71429,3.66667,2
4023,12:14.1,1.71429,3.66667,2
4024,12:14.4,1.71429,3.66667,2
4025,12:14.6,1.71429,3.66667,2
4026,12:14.9,1.71429,3.66667,2
4027,12:15.1,1.71429,3.66667,2
4028,12:15.4,1.71429,3.66667,2
4029,12:15.6,1.71429,3.66667,2
4030,12:15.9,1.71429,3.66667,2
4031,12:16.1,1.71429,3.66667,2
4032,12:16.4,1.71429,3.66667,2
4033,12:16.6,1.71429,3.66667,2
4034,12:16.9,1.71429,3.66667,2
4035,12:17.1,1.71429,3.66667,2
4036,12:17.4,1.71429,3.66667,2
4037,12:17.6,1.71429,3.66667,2
4038,12:17.9,1.71429,3.66667,2
4039,12:18.1,1.71429,3.66667,2
4040,12:18.4,1.71429,3.66667,2
4041,12:18.6,1.71429,3.66667,2
4042,12:18.9,1.71429,3.66667,2
4043,12:19.1,1.71429,3.66667,2
4044,12:19.4,1.71429,3.66667,2
4045,12:19.6,1.71429,3.66667,2
4046,12:19.9,1.71429,3.66667,2
4047,12:20.1,1.71429,3.66667,2
4048,12:20.4,1.71429,3.66667,2
4049,12:20.6,1.71429,3.66667,2
4050,12:20.9,1.71429,3.66667,2
4051,12:21.1,1.71429,3.66667,2
4052,12:21.4,1.71429,3.66667,2
4053,12:21.6,1.71429,3.66667,2
4054,12:21.9,1.71429,3.66667,2
4055,12:22.1,1.71429,3.66667,2
4056,12:22.4,1.71429,3.66667,2
4057,12:22.6,1.71429,3.66667,2
4058,12:22.9,1.71429,3.66667,2
4059,12:23.1,1.71429,3.66667,2
4060,12:23.4,1.71429,3.66667,2
4061,12:23.6,1.71429,3.66667,2
4062,12:23.9,1.71429,3.66667,2
4063,12:24.1,1.71429,3.66667,2
4064,12:24.4,1.71429,3.66667,2
4065,12:24.6,1.71429,3.66667,2
4066,12:24.9,1.71429,3.66667,2
4067,12:25.1,1.71429,3.66667,2
4068,12:25.4,1.71429,3.66667,2
4069,12:25.6,1.71429,3.66667,2
4070,12:25.9,1.71429,3.66667,2
